 $NMID ID='ala', FMTDAT='(8E13.5)'
 TRAMP=1., VOLUME=1. $END
  2.56913E+01  1.98893E-01  3.02793E+00  2.17230E+01 -1.41541E+01  1.05222E+00  5.07789E+00 -1.06036E+01
  1.41792E+01  9.18298E+00 -6.96214E+00  2.04391E+01 -2.24921E+01 -1.11581E+00 -1.30155E+00 -1.84638E+01
  1.31745E+01  3.45646E+00 -1.15462E+01  1.24030E+01 -1.63472E+01 -1.54506E+01  1.19328E+01 -1.95867E+01
  1.74684E+01  5.43036E+00 -3.25843E+00  1.16105E+01 -8.23392E+00 -7.87529E+00  1.45560E+01 -1.11210E+01
  1.70950E+01  1.68097E+01 -1.34128E+01  1.92124E+01 -1.42977E+01 -9.37222E+00  9.99623E+00 -6.56919E+00
  3.28431E+00  1.48769E+01 -1.85120E+01  7.06446E+00 -1.31896E+01 -1.67614E+01  1.17609E+01 -1.47289E+01
  9.86245E+00  9.67392E+00 -1.37291E+01  3.50585E+00 -1.68115E+00 -2.03371E+01  2.27556E+01 -4.99221E+00
  8.33817E+00  1.83947E+01 -1.17695E+01  6.93189E+00 -1.73929E+00 -9.79427E+00  1.44769E+01  1.75455E+00
  4.03001E-02  2.09005E+01 -2.25844E+01  4.53445E+00 -5.71373E+00 -1.83203E+01  1.31223E+01 -9.20628E-01
 -5.92045E+00  1.24869E+01 -1.64429E+01 -8.35056E+00  4.36486E+00 -1.98853E+01  1.85857E+01 -1.30695E+00
  2.16520E+00  1.40032E+01 -1.15139E+01 -3.20772E+00  9.78497E+00 -1.41355E+01  1.88970E+01  1.15910E+01
 -7.98907E+00  2.00141E+01 -1.54016E+01 -4.00225E+00  4.56327E+00 -9.23727E+00  7.62038E+00  9.18005E+00
 -1.28330E+01  1.19867E+01 -1.74752E+01 -1.18723E+01  8.18281E+00 -1.80567E+01  1.28698E+01  6.94616E+00
 -1.06031E+01  6.96059E+00 -5.75505E+00 -1.58765E+01  1.72883E+01 -9.37020E+00  1.28602E+01  1.33107E+01
 -8.28918E+00  1.18764E+01 -7.36500E+00 -7.90251E+00  1.30460E+01 -4.17750E+00  5.37480E+00  1.88138E+01
 -1.96873E+01  8.72547E+00 -9.31256E+00 -1.53135E+01  1.06734E+01 -5.26221E+00  7.11289E-02  1.06164E+01
 -1.47992E+01 -1.14848E+00 -2.60000E+00 -1.84295E+01  1.77541E+01 -6.88282E+00  6.49168E+00  1.40960E+01
 -1.20628E+01  1.02667E+00  4.64273E+00 -1.41374E+01  1.78174E+01  5.54127E+00 -1.76723E+00  1.85141E+01
 -1.48900E+01  1.84260E+00 -1.02500E+00 -1.05822E+01  1.02829E+01  3.48424E+00 -7.11916E+00  1.44947E+01
 -1.87808E+01 -6.71394E+00  3.89222E+00 -1.84272E+01  1.34801E+01  2.95763E+00 -5.83403E+00  8.69066E+00
 -8.47670E+00 -9.83165E+00  1.07367E+01 -1.23514E+01  1.56890E+01  7.71535E+00 -4.45805E+00  1.48099E+01
 -1.07659E+01 -5.20528E+00  1.00149E+01 -7.83444E+00  8.61239E+00  1.45206E+01 -1.45232E+01  1.12533E+01
 -1.18063E+01 -1.04498E+01  6.86628E+00 -8.86784E+00  5.23714E+00  7.62986E+00 -1.19349E+01  4.71424E+00
 -7.67715E+00 -1.54257E+01  1.49855E+01 -1.04545E+01  9.27830E+00  1.19098E+01 -1.01354E+01  4.47688E+00
 -2.75381E-01 -1.17225E+01  1.46763E+01 -3.54104E-01  3.96979E+00  1.54332E+01 -1.30661E+01  6.80071E+00
 -5.53533E+00 -1.04060E+01  1.08152E+01 -1.22855E+00 -2.08530E+00  1.42702E+01 -1.71865E+01 -1.82506E+00
 -5.47498E-01 -1.62718E+01  1.21800E+01 -1.46944E+00 -6.24844E-01  8.93129E+00 -9.69645E+00 -3.66543E+00
  4.49999E+00 -1.34814E+01  1.62569E+01  2.62388E+00 -8.30947E-01  1.52290E+01 -1.16305E+01 -2.04070E+00
  5.88434E+00 -9.13764E+00  9.83239E+00  8.92630E+00 -8.34404E+00  1.21563E+01 -1.29408E+01 -5.04880E+00
  2.80857E+00 -1.10655E+01  8.60527E+00  4.30472E+00 -8.35909E+00  8.29194E+00 -1.02630E+01 -1.12715E+01
  1.07311E+01 -1.18193E+01  1.04833E+01  8.07882E+00 -6.60770E+00  6.90007E+00 -4.30800E+00 -7.94888E+00
  1.05093E+01 -5.07626E+00  8.09913E+00  1.15266E+01 -1.02666E+01  9.89809E+00 -8.24949E+00 -8.75112E+00
  9.29156E+00 -4.44955E+00  1.84337E+00  1.17183E+01 -1.34789E+01  2.30092E+00 -4.43688E+00 -1.25166E+01
  9.69278E+00 -5.34868E+00  3.80579E+00  8.00577E+00 -9.39854E+00  1.37657E+00 -4.17709E-01 -1.26331E+01
  1.45461E+01 -1.33456E+00  2.21052E+00  1.33296E+01 -1.03362E+01  1.13873E+00  1.46562E+00 -8.54280E+00
  9.42658E+00  3.23592E+00 -2.51303E+00  1.16100E+01 -1.25836E+01 -3.12830E-01 -6.35379E-01 -1.14564E+01
  9.72246E+00  1.22207E+00 -4.57408E+00  9.34595E+00 -1.04604E+01 -6.58580E+00  5.82041E+00 -1.12920E+01
  1.03163E+01  3.63300E+00 -2.62931E+00  8.13136E+00 -6.88829E+00 -3.94657E+00  6.26288E+00 -7.88011E+00
  9.99385E+00  7.44796E+00 -6.89699E+00  1.07832E+01 -9.04199E+00 -5.98809E+00  6.31225E+00 -6.10139E+00
  4.46163E+00  7.78983E+00 -8.82022E+00  5.23627E+00 -7.11396E+00 -8.22754E+00  6.73764E+00 -7.84996E+00
  6.59308E+00  6.26517E+00 -7.77668E+00  4.57001E+00 -3.54936E+00 -1.01122E+01  1.11139E+01 -3.90710E+00
  4.40862E+00  9.87570E+00 -7.70416E+00  3.80713E+00 -2.33917E+00 -6.76870E+00  7.91016E+00 -1.41322E+00
  1.89183E+00  9.89706E+00 -1.08277E+01  2.97253E+00 -2.98439E+00 -1.00822E+01  8.76175E+00 -1.24544E+00
 -1.08321E+00  8.29988E+00 -8.89546E+00 -2.12934E+00  1.24090E+00 -9.47602E+00  9.10268E+00 -3.40453E-01
  7.58261E-01  8.11928E+00 -7.73024E+00 -6.03910E-01  2.62354E+00 -8.52434E+00  9.66640E+00  3.71742E+00
 -3.44641E+00  9.72673E+00 -8.26283E+00 -2.76641E+00  2.80789E+00 -6.39775E+00  5.73014E+00  3.64039E+00
 -4.36538E+00  6.70426E+00 -8.16944E+00 -4.31199E+00  3.88582E+00 -8.56070E+00  7.43736E+00  4.08789E+00
 -5.27459E+00  5.79221E+00 -4.91945E+00 -6.61443E+00  6.90971E+00 -5.12270E+00  5.60099E+00  5.91061E+00
 -4.67611E+00  5.49101E+00 -4.80806E+00 -4.54669E+00  5.80321E+00 -4.27519E+00  4.33448E+00  7.40548E+00
 -8.05314E+00  4.55359E+00 -4.12910E+00 -7.43602E+00  6.40525E+00 -2.89350E+00  1.64497E+00  5.99896E+00
 -6.42515E+00  1.36500E+00 -2.15085E+00 -7.04083E+00  7.20820E+00 -3.03075E+00  2.89652E+00  6.99292E+00
 -6.94685E+00  1.58948E+00 -2.71927E-02 -7.32208E+00  7.68905E+00  7.23955E-01 -4.45443E-01  7.42620E+00
 -6.51492E+00  1.55865E-01 -2.62540E-01 -5.69717E+00  5.75826E+00  2.72318E-01 -9.58369E-01  6.68128E+00
 -7.59383E+00 -1.34749E+00  1.52438E+00 -7.59150E+00  6.60063E+00  1.88191E+00 -2.52064E+00  5.41101E+00
 -4.88680E+00 -3.03540E+00  2.96842E+00 -5.18650E+00  5.74371E+00  2.41187E+00 -2.03750E+00  5.92557E+00
 -5.61711E+00 -2.45812E+00  3.57719E+00 -5.16583E+00  4.86657E+00  4.62648E+00 -4.87633E+00  4.63636E+00
 -4.22474E+00 -4.30635E+00  3.58002E+00 -3.64607E+00  3.26593E+00  3.39149E+00 -3.86542E+00  3.39939E+00
 -3.87623E+00 -4.56642E+00  5.01105E+00 -4.10165E+00  3.60865E+00  5.09475E+00 -5.03587E+00  2.54351E+00
 -1.57045E+00 -5.00960E+00  4.94902E+00 -1.27373E+00  1.64515E+00  4.72594E+00 -4.43752E+00  2.13995E+00
 -2.20219E+00 -4.40067E+00  4.81047E+00 -1.72080E+00  1.01300E+00  5.44591E+00 -5.79003E+00  4.44455E-01
 -1.24276E-01 -5.49450E+00  4.73081E+00  5.47719E-02 -1.78127E-01  4.06407E+00 -3.96077E+00 -2.04292E-01
  1.05659E-01 -4.40276E+00  4.95197E+00  3.55244E-02 -2.58811E-01  5.16103E+00 -4.91752E+00 -8.74563E-01
  1.63369E+00 -4.43586E+00  3.99147E+00  2.09318E+00 -1.99768E+00  3.70671E+00 -3.56560E+00 -1.52564E+00
  1.15182E+00 -3.54616E+00  3.66023E+00  1.25101E+00 -1.80839E+00  3.85569E+00 -3.94506E+00 -2.47800E+00
  2.89503E+00 -3.71270E+00  3.13253E+00  2.93637E+00 -2.73084E+00  2.46370E+00 -2.08218E+00 -2.48717E+00
  2.34478E+00 -2.17315E+00  2.56414E+00  2.35883E+00 -2.54944E+00  2.85838E+00 -2.74927E+00 -2.89897E+00
  3.29552E+00 -2.23977E+00  1.59881E+00  3.53410E+00 -3.44248E+00  1.13037E+00 -9.72518E-01 -3.04638E+00
  2.60195E+00 -1.06385E+00  1.24272E+00  2.42706E+00 -2.65698E+00  1.35254E+00 -1.28554E+00 -3.13252E+00
  3.52141E+00 -9.95685E-01  5.26384E-01  3.56532E+00 -3.25088E+00  3.04119E-02  2.81512E-01 -2.78498E+00
  2.42815E+00  2.73437E-01 -4.56930E-03  2.33306E+00 -2.48892E+00  2.80212E-01 -3.10091E-01 -2.76556E+00
  2.99138E+00  1.66901E-02 -5.58454E-01  3.02255E+00 -2.79860E+00 -1.03377E+00  1.21698E+00 -2.38230E+00
  1.95101E+00  1.07736E+00 -7.74453E-01  1.71260E+00 -1.77536E+00 -5.38508E-01  5.34353E-01 -2.06098E+00
  2.33957E+00  7.86348E-01 -1.18460E+00  2.37645E+00 -2.08957E+00 -1.54724E+00  1.70801E+00 -1.60208E+00
  1.15696E+00  1.59945E+00 -1.29661E+00  9.58508E-01 -1.05259E+00 -9.88143E-01  8.74563E-01 -1.31410E+00
  1.53319E+00  1.04444E+00 -1.41159E+00  1.53683E+00 -1.27779E+00 -1.76182E+00  1.88631E+00 -8.52811E-01
  4.48639E-01  1.71250E+00 -1.34645E+00  2.42437E-01 -3.04253E-01 -1.00264E+00  8.71961E-01 -5.53627E-01
  8.00103E-01  1.01175E+00 -1.32020E+00  8.52463E-01 -6.33772E-01 -1.60148E+00  1.67855E+00 -2.30682E-01
 -1.57655E-01  1.49072E+00 -1.12550E+00 -3.39666E-01  2.45881E-01 -7.68768E-01  6.00175E-01 -3.23735E-02
  3.00346E-01  6.90201E-01 -9.58386E-01  3.76209E-01 -1.95094E-01 -1.21891E+00  1.28925E+00  1.56319E-01
 -4.92621E-01  1.09793E+00 -7.26764E-01 -6.36900E-01  5.21600E-01 -3.61837E-01  1.83600E-01  2.26514E-01
  6.78965E-02  2.61682E-01 -5.16100E-01  1.85024E-01 -5.44499E-02 -7.66071E-01  8.36072E-01  2.47456E-01
 -5.42741E-01  6.57347E-01 -3.06416E-01 -6.56171E-01  5.17347E-01  4.03660E-02 -2.09498E-01  2.00820E-01
  1.18479E-01 -1.30593E-01 -1.23882E-01  2.67634E-01 -1.75955E-01 -3.81698E-01  4.71755E-01  8.52046E-02
 -3.45268E-01  3.23361E-01 -6.52150E-03 -4.34307E-01  2.81645E-01  3.09709E-01 -4.56118E-01 -4.38953E-02
  3.75076E-01 -3.61379E-01  9.25265E-02  5.43755E-01 -4.78289E-01 -1.85198E-01  3.05169E-01 -2.44007E-01
  4.14668E-03  1.96060E-01  7.77901E-02 -7.57763E-02 -7.57624E-02  3.54939E-01 -4.71162E-01 -3.95316E-01
  7.22267E-01 -3.54484E-01  6.59966E-02  8.92983E-01 -8.35827E-01 -2.36452E-01  3.90117E-01 -6.11493E-01
  3.75948E-01  3.21702E-01 -8.97728E-02  2.88733E-01 -4.20931E-01  1.49886E-01 -2.35859E-01 -7.15401E-01
  1.02105E+00 -9.59352E-02 -2.11100E-01  1.17982E+00 -1.11725E+00 -5.31614E-01  7.08584E-01 -8.85147E-01
  6.32206E-01  6.72791E-01 -4.80405E-01  5.18047E-01 -6.19473E-01 -2.77086E-01  2.12717E-01 -8.83467E-01
  1.15833E+00  3.57395E-01 -6.63626E-01  1.28442E+00 -1.19056E+00 -9.93531E-01  1.19541E+00 -9.34752E-01
  6.65444E-01  1.18911E+00 -1.01456E+00  5.30505E-01 -5.92206E-01 -8.12970E-01  7.45439E-01 -7.97373E-01
  1.01381E+00  8.94738E-01 -1.21126E+00  1.10511E+00 -1.00215E+00 -1.54197E+00  1.72708E+00 -7.38371E-01
  4.34428E-01  1.69999E+00 -1.52363E+00  2.36949E-01 -2.36676E-01 -1.34293E+00  1.29219E+00 -4.08361E-01
