 $NMID ID='asc', FMTDAT='(8E13.5)'
 TRAMP=1., VOLUME=1. $END
  2.57183E+01 -3.96837E-01  2.10474E+01  8.93017E+00  1.75779E+01  1.25534E+01  1.19476E+01  1.95723E+01
  1.29347E+00  1.91082E+01 -2.70868E+00  1.54224E+01 -8.90965E+00  1.34233E+01 -1.23290E+01  4.14734E+00
 -8.49480E+00 -9.78115E-01 -7.87340E+00 -4.68182E+00 -1.48349E+00 -1.02393E+01  5.45514E+00 -7.22262E+00
  7.39512E+00 -5.62263E+00  1.32210E+01 -2.27675E+00  1.26488E+01  6.00015E+00  9.47364E+00  8.15502E+00
  8.51278E+00  1.27544E+01  9.10404E-01  1.54253E+01 -2.73566E+00  1.17436E+01 -5.06425E+00  1.18180E+01
 -9.69833E+00  7.05757E+00 -6.78113E+00  2.03100E+00 -5.90733E+00  2.01023E+00 -4.31336E+00 -1.90389E+00
  1.36238E+00 -2.79290E-01  6.56217E-01  3.22210E+00  1.95184E+00  3.59122E+00  1.63614E+00  9.32718E+00
 -4.40282E+00  1.04624E+01 -6.10854E+00  9.48739E+00 -1.13905E+01  1.03763E+01 -1.60109E+01  3.96434E+00
 -1.47513E+01 -3.17162E-01 -1.63677E+01 -4.57490E+00 -1.22008E+01 -1.20114E+01 -5.84886E+00 -1.24199E+01
 -2.64642E+00 -1.37252E+01  5.31902E+00 -1.28124E+01  8.38911E+00 -5.74797E+00  8.59795E+00 -2.49445E+00
  9.93232E+00  4.13223E+00  3.62444E+00  1.00379E+01 -1.25147E+00  9.81843E+00 -6.29064E+00  1.17943E+01
 -1.45351E+01  7.73111E+00 -1.59324E+01  8.83090E-01 -1.77774E+01 -3.35165E+00 -1.71623E+01 -1.24728E+01
 -1.00394E+01 -1.71730E+01 -5.97743E+00 -1.90061E+01  1.77110E+00 -2.18066E+01  9.43152E+00 -1.69608E+01
  1.15293E+01 -1.29126E+01  1.59453E+01 -8.24327E+00  1.47363E+01  2.08039E-01  1.06246E+01  2.77425E+00
  8.77636E+00  6.28855E+00  1.78296E+00  8.07729E+00 -1.69643E+00  3.92855E+00 -3.03718E+00  2.85885E+00
 -6.12032E+00 -1.71188E+00 -2.59616E+00 -6.60488E+00 -3.13583E-01 -6.60806E+00  2.08074E+00 -9.47564E+00
  8.03910E+00 -7.79039E+00  8.52147E+00 -3.94818E+00  1.02120E+01 -2.96375E+00  1.09472E+01  2.49735E+00
  6.63458E+00  4.50675E+00  5.96443E+00  4.46531E+00  2.64964E+00  6.52931E+00 -6.52394E-01  2.87614E+00
  9.60247E-01  1.04388E+00 -2.69554E-01 -4.24837E-02  2.37350E+00 -3.94000E+00  6.56113E+00 -2.13243E+00
  7.18037E+00 -1.16448E+00  1.12513E+01  5.58255E-01  1.13519E+01  6.83929E+00  8.78840E+00  9.08398E+00
  7.92545E+00  1.30433E+01  1.49526E+00  1.62941E+01 -3.13273E+00  1.40069E+01 -6.57310E+00  1.37538E+01
 -1.22213E+01  9.38410E+00 -1.17925E+01  3.14909E+00 -1.14265E+01  3.16784E-01 -9.83341E+00 -5.66941E+00
 -3.32237E+00 -7.64759E+00 -2.99337E-01 -6.57273E+00  4.47561E+00 -6.71925E+00  8.70174E+00 -1.09131E+00
  7.45882E+00  3.31828E+00  7.90566E+00  6.83726E+00  4.16978E+00  1.27574E+01 -1.82604E+00  1.29881E+01
 -4.90542E+00  1.31676E+01 -1.13477E+01  1.21020E+01 -1.43358E+01  5.98938E+00 -1.45042E+01  2.80311E+00
 -1.59528E+01 -2.43733E+00 -1.18021E+01 -7.72914E+00 -8.47574E+00 -8.19153E+00 -5.68019E+00 -1.06230E+01
  1.65139E-03 -9.36798E+00  8.77560E-01 -5.91944E+00  2.25515E+00 -5.17011E+00  3.10596E+00 -8.81858E-01
 -4.72260E-01  6.98602E-01 -1.00705E+00  1.35615E-01 -3.38408E+00  1.54621E+00 -6.08310E+00 -1.70459E+00
 -4.50777E+00 -3.67344E+00 -5.34415E+00 -4.65016E+00 -3.36793E+00 -8.25538E+00  1.56787E-01 -7.33874E+00
  4.99564E-01 -7.09553E+00  3.80667E+00 -6.87320E+00  4.40401E+00 -2.90556E+00  2.89165E+00 -2.37944E+00
  3.54600E+00 -6.51989E-01  1.63444E-01  1.12024E+00 -1.56738E+00 -1.40263E+00 -1.74015E+00 -1.59756E+00
 -3.99618E+00 -4.16847E+00 -1.59230E+00 -7.90288E+00  4.36005E-01 -8.04473E+00  2.37120E+00 -1.04524E+01
  7.75776E+00 -9.82189E+00  9.54428E+00 -6.65401E+00  1.19607E+01 -5.29058E+00  1.39887E+01  6.79804E-02
  1.13455E+01  3.91883E+00  1.04197E+01  6.05217E+00  6.88386E+00  9.94725E+00  1.85130E+00  9.04974E+00
  1.08894E-01  8.02808E+00 -3.83859E+00  6.74815E+00 -4.89405E+00  1.72442E+00 -3.28618E+00 -2.33255E-01
 -3.19859E+00 -2.99897E+00  9.86100E-01 -5.65267E+00  4.12492E+00 -3.87759E+00  5.86434E+00 -3.68862E+00
  9.60565E+00 -9.37783E-01  8.99566E+00  3.54244E+00  8.30856E+00  5.12394E+00  7.44499E+00  9.10061E+00
  2.83980E+00  1.06758E+01  9.03872E-01  9.86875E+00 -2.06555E+00  1.06922E+01 -5.38256E+00  7.63545E+00
 -4.81787E+00  5.38319E+00 -6.08728E+00  4.27274E+00 -5.22043E+00  8.26183E-01 -2.73837E+00  1.04749E+00
 -3.01241E+00  9.10805E-01 -8.08095E-01  4.02723E-01 -4.76008E-01  3.11983E+00 -2.02778E+00  3.05533E+00
 -1.46972E+00  3.81991E+00 -4.08282E+00  5.06343E+00 -5.54280E+00  2.79629E+00 -5.50539E+00  2.61246E+00
 -7.54131E+00  8.77224E-01 -6.06128E+00 -2.02958E+00 -4.97357E+00 -1.87222E+00 -4.54230E+00 -3.75116E+00
 -1.30752E+00 -3.71864E+00 -1.04218E+00 -1.76970E+00 -3.56258E-01 -1.95034E+00  6.15735E-01  6.84955E-01
 -1.93311E+00  2.01723E+00 -2.53320E+00  1.55909E+00 -4.45529E+00  2.83209E+00 -7.36371E+00  5.41835E-01
 -7.04365E+00 -1.58047E+00 -8.33455E+00 -3.05648E+00 -7.54579E+00 -7.18195E+00 -4.57601E+00 -8.33948E+00
 -3.43871E+00 -9.60284E+00  5.20643E-01 -1.09133E+01  3.36516E+00 -8.51054E+00  4.41726E+00 -7.62151E+00
  7.04843E+00 -5.22547E+00  6.12447E+00 -1.56291E+00  5.06999E+00 -8.07965E-01  4.42579E+00  1.59607E+00
  9.39366E-01  2.12895E+00 -1.35302E-02  4.95952E-01 -1.25995E+00  5.45742E-01 -2.81312E+00 -2.23188E+00
 -9.32682E-01 -4.20166E+00 -5.38133E-01 -4.61974E+00  1.25240E+00 -6.78658E+00  4.39968E+00 -5.76535E+00
  4.89178E+00 -4.69142E+00  7.11900E+00 -4.12452E+00  7.80799E+00 -7.92513E-01  6.53932E+00  2.50872E-01
  7.01826E+00  1.69510E+00  4.86017E+00  3.71426E+00  3.36621E+00  2.67208E+00  3.26654E+00  3.24979E+00
  1.24639E+00  2.72298E+00  1.95980E+00  9.37743E-01  2.46240E+00  1.70660E+00  2.11555E+00  7.34226E-01
  4.16469E+00  9.72674E-01  3.85800E+00  2.85861E+00  3.77959E+00  2.73265E+00  4.30726E+00  4.77210E+00
  1.98958E+00  5.92944E+00  1.37437E+00  5.45627E+00 -9.82281E-03  6.67155E+00 -2.39675E+00  5.22165E+00
 -2.08354E+00  3.92654E+00 -3.20874E+00  3.57453E+00 -3.08970E+00  1.04362E+00 -1.27364E+00  8.91382E-01
 -1.39545E+00  7.22985E-01  4.71174E-01  4.55872E-02  1.45052E+00  2.18087E+00  7.03169E-01  2.73562E+00
  1.46859E+00  3.93831E+00 -3.86482E-01  6.06519E+00 -2.21054E+00  5.47320E+00 -3.10553E+00  6.08590E+00
 -6.07340E+00  5.40927E+00 -6.72120E+00  2.91695E+00 -7.22115E+00  2.16724E+00 -8.11032E+00 -5.53948E-01
 -6.12835E+00 -2.53844E+00 -5.45137E+00 -2.84496E+00 -4.02409E+00 -4.58953E+00 -1.49347E+00 -3.79070E+00
 -1.42146E+00 -2.86819E+00 -9.73285E-02 -2.74431E+00  1.34199E-01 -4.65143E-01 -1.36845E+00 -2.04523E-01
 -1.19099E+00  3.81549E-02 -2.91542E+00  8.58544E-01 -4.06681E+00 -9.45067E-01 -3.67876E+00 -1.43107E+00
 -4.80002E+00 -2.53387E+00 -3.63328E+00 -4.73069E+00 -2.39652E+00 -4.60181E+00 -2.02862E+00 -5.71197E+00
  3.93485E-01 -5.90874E+00  9.40138E-01 -4.48390E+00  1.49178E+00 -4.73343E+00  2.73837E+00 -3.20912E+00
  1.57862E+00 -2.15568E+00  1.75983E+00 -2.53592E+00  1.47958E+00 -1.33733E+00  1.51348E-01 -2.14246E+00
  1.04412E+00 -2.88872E+00  7.10574E-01 -2.59498E+00  1.08658E+00 -4.13047E+00  2.89884E+00 -3.79285E+00
  2.92513E+00 -3.35610E+00  4.44363E+00 -3.61679E+00  5.39440E+00 -1.60715E+00  4.79953E+00 -9.29969E-01
  5.62312E+00  4.38558E-02  4.49410E+00  1.95162E+00  3.34779E+00  1.62538E+00  3.23197E+00  2.35966E+00
  1.37320E+00  2.39501E+00  1.30067E+00  9.75813E-01  1.38631E+00  1.24803E+00  7.78164E-01  1.08518E-01
  2.34780E+00 -5.35218E-01  2.65659E+00  3.34976E-01  3.18265E+00 -1.62207E-01  4.60816E+00  1.17325E+00
  3.85561E+00  2.55344E+00  4.05419E+00  2.88972E+00  3.58881E+00  4.86955E+00  1.65740E+00  5.12871E+00
  1.31079E+00  5.14619E+00 -3.97215E-01  5.80336E+00 -1.70565E+00  4.30078E+00 -1.55401E+00  3.89462E+00
 -2.72321E+00  3.22823E+00 -2.15273E+00  1.56545E+00 -1.46122E+00  1.88776E+00 -1.74061E+00  1.22932E+00
 -3.58948E-01  1.08251E+00 -4.96443E-01  2.31139E+00 -7.96721E-01  1.98791E+00 -3.43979E-01  2.93811E+00
 -1.86465E+00  3.57053E+00 -2.28428E+00  2.81729E+00 -2.85869E+00  3.38491E+00 -4.38901E+00  2.36642E+00
 -4.00830E+00  1.23402E+00 -4.54512E+00  1.08608E+00 -4.64052E+00 -6.50359E-01 -3.39012E+00 -9.73868E-01
 -3.61402E+00 -1.12999E+00 -2.61014E+00 -2.06903E+00 -1.81547E+00 -1.14368E+00 -2.30369E+00 -1.25839E+00
 -1.44275E+00 -1.25505E+00 -1.99058E+00 -2.74934E-01 -2.61138E+00 -1.07106E+00 -2.20251E+00 -9.42682E-01
 -3.27736E+00 -1.11685E+00 -3.00792E+00 -2.52459E+00 -2.54022E+00 -2.44260E+00 -2.86219E+00 -3.44370E+00
 -1.41650E+00 -4.22813E+00 -9.58847E-01 -3.71341E+00 -4.40015E-01 -4.45407E+00  1.03164E+00 -3.83602E+00
  7.96372E-01 -3.07207E+00  1.41427E+00 -3.27540E+00  1.76817E+00 -2.00625E+00  8.94340E-01 -1.94278E+00
  1.41434E+00 -2.04988E+00  8.78077E-01 -1.32475E+00  4.58564E-01 -2.25160E+00  1.24834E+00 -2.23049E+00
  7.76555E-01 -2.21845E+00  1.52581E+00 -3.14150E+00  2.40448E+00 -2.43559E+00  2.29600E+00 -2.52840E+00
  3.56837E+00 -2.40745E+00  3.68646E+00 -1.08403E+00  3.57940E+00 -1.08453E+00  4.25930E+00 -8.35954E-02
  3.31366E+00  8.56217E-01  3.19424E+00  6.25267E-01  3.03451E+00  1.60086E+00  1.88539E+00  1.41611E+00
  2.22581E+00  1.03989E+00  1.76618E+00  1.58200E+00  1.43161E+00  7.41790E-01  2.24274E+00  9.15215E-01
  1.77653E+00  1.27262E+00  2.24729E+00  7.97591E-01  2.70324E+00  1.83283E+00  2.02762E+00  2.06983E+00
  2.51160E+00  2.29121E+00  1.90561E+00  3.46475E+00  1.06967E+00  3.19506E+00  1.11222E+00  3.63936E+00
 -1.91722E-01  3.95499E+00 -5.69657E-01  3.09644E+00 -7.48039E-01  3.38971E+00 -1.73519E+00  2.73346E+00
 -1.24906E+00  1.98361E+00 -1.45433E+00  2.26973E+00 -1.64192E+00  1.39528E+00 -8.25750E-01  1.50751E+00
 -1.31756E+00  1.85810E+00 -1.08610E+00  1.35200E+00 -8.97143E-01  2.14801E+00 -1.81732E+00  2.10050E+00
 -1.61640E+00  1.84721E+00 -2.28871E+00  2.39421E+00 -3.07039E+00  1.52827E+00 -2.82559E+00  1.28479E+00
 -3.66258E+00  1.03136E+00 -3.53804E+00 -2.25152E-01 -3.10214E+00 -2.49048E-01 -3.44161E+00 -9.46256E-01
 -2.47012E+00 -1.61962E+00 -2.21864E+00 -1.18327E+00 -2.13776E+00 -1.77307E+00 -1.23065E+00 -1.49635E+00
 -1.64570E+00 -1.02949E+00 -1.47402E+00 -1.50930E+00 -1.27920E+00 -9.09909E-01 -2.06256E+00 -1.17002E+00
