 $NMID ID='asp', FMTDAT='(8E13.5)'
 TRAMP=1., VOLUME=1. $END
  1.96913E+01 -8.15580E-02  1.08834E+01  1.33764E+01 -3.21879E-01  1.33689E+01 -8.05531E+00  8.99589E+00
 -1.00326E+01 -2.38657E+00  1.22911E+00 -7.20320E+00  6.46726E+00  1.47012E+00  2.77128E+00  7.31598E+00
 -4.15780E+00  1.11204E+01 -1.57602E+01  5.02206E+00 -1.41114E+01 -1.01077E+01 -2.91929E+00 -1.47564E+01
  5.93040E+00 -1.31605E+01  1.36293E+01 -4.45327E+00  8.10286E+00  7.04290E+00 -1.27267E+00  5.02095E+00
 -2.15451E+00  1.90468E-01 -1.09468E+00 -4.06104E+00  7.20206E+00 -5.70322E+00  1.16131E+01  4.79038E+00
  3.96636E+00  1.16755E+01 -2.97936E+00  1.18153E+01 -1.13533E+01  8.30473E+00 -1.27336E+01 -3.42957E+00
 -4.01875E+00 -7.62383E+00 -4.30102E-01 -5.14802E+00  2.26177E+00 -3.42310E+00  7.48303E-01  1.69216E+00
 -5.06130E+00 -1.33468E+00 -1.64124E+00 -7.02913E+00  2.37908E+00 -6.50872E+00  6.57525E+00 -6.47880E+00
  1.12287E+01  3.66798E-01  6.02127E+00  6.95570E+00  2.03437E+00  6.01481E+00 -4.19600E-01  6.94739E+00
 -4.23187E+00  3.63031E+00 -1.38190E+00  1.13131E+00 -2.30791E+00  3.82609E+00 -4.81974E+00  1.17301E+00
 -3.57709E+00  4.36751E-01 -6.17012E+00 -8.45856E-01 -3.92828E+00 -5.71553E+00 -4.16023E-01 -4.35473E+00
 -9.18865E-01 -5.13364E+00  3.25893E+00 -5.93327E+00  4.32958E+00 -2.41864E+00  4.76413E+00 -2.83069E+00
  7.92770E+00  1.00293E+00  4.14060E+00  5.47411E+00  1.68897E+00  4.51415E+00 -1.36648E-01  5.97502E+00
 -3.91553E+00  3.07599E+00 -9.87158E-01  3.70161E-01 -9.53301E-01  3.35070E+00 -3.40788E+00  2.32642E+00
 -3.88993E+00  2.46495E+00 -8.37502E+00  1.41734E-01 -6.50987E+00 -7.42442E+00 -2.44074E-01 -8.29107E+00
  3.14218E+00 -7.47669E+00  8.10767E+00 -3.76875E+00  5.76509E+00  3.38409E+00  5.41334E-01  2.32580E+00
  8.40060E-01  4.65634E-01  4.88306E-01 -7.72584E-01  4.74811E+00 -2.12055E+00  7.32459E+00  4.78453E+00
  1.26966E+00  9.08064E+00 -3.56273E+00  8.25639E+00 -9.34980E+00  5.51886E+00 -1.03447E+01 -3.73929E+00
 -2.78149E+00 -7.37130E+00  8.44124E-01 -4.75668E+00  2.96041E+00 -2.55029E+00  1.30631E+00  2.27007E+00
 -4.61659E+00 -6.76744E-02 -2.41827E+00 -6.11849E+00  2.13314E+00 -6.70524E+00  7.05972E+00 -6.07127E+00
  1.15527E+01  1.35623E+00  5.80511E+00  9.03097E+00 -7.75807E-01  8.08565E+00 -4.48944E+00  5.88876E+00
 -6.48713E+00 -2.08151E-02 -6.88057E-01 -3.43484E+00  1.89801E+00  1.15843E+00 -6.23740E-01  3.04050E+00
 -3.04692E+00  4.06599E+00 -8.55136E+00  1.17306E+00 -7.07464E+00 -7.17419E+00 -1.29637E-01 -8.78966E+00
  4.02588E+00 -7.24322E+00  8.39553E+00 -2.90130E+00  5.75147E+00  4.11588E+00  2.09380E-01  3.23431E+00
  8.48740E-02  1.01876E+00 -2.34499E-01 -2.59338E-01  3.18566E+00 -1.73513E+00  5.49268E+00  3.70380E+00
  5.43980E-01  7.00888E+00 -2.91734E+00  5.96835E+00 -7.03416E+00  4.22376E+00 -8.10949E+00 -2.70086E+00
 -2.47851E+00 -5.52657E+00 -2.05906E-01 -3.78850E+00  1.61008E+00 -3.22352E+00  1.70684E+00  2.25903E-01
 -1.95170E+00 -6.97223E-01 -2.63005E-02 -4.06184E+00  2.36584E+00 -3.13526E+00  4.22926E+00 -3.05883E+00
  7.22825E+00  1.00444E+00  3.59963E+00  5.74052E+00  1.05941E-01  4.78952E+00 -1.64885E+00  4.69617E+00
 -4.33071E+00  1.84418E+00 -1.72978E+00 -9.37290E-01 -8.88551E-01  1.15729E+00 -2.39519E+00  4.02814E-01
 -1.84880E+00  3.71245E-01 -4.31210E+00 -2.71604E-01 -3.28069E+00 -4.68425E+00  5.34150E-01 -4.59978E+00
  1.57806E+00 -4.06164E+00  4.66957E+00 -2.91234E+00  4.19464E+00  1.43144E+00  1.54811E+00  1.23902E+00
  2.20180E+00  1.34038E+00  5.33456E-01  2.12764E+00  1.00403E+00  5.41641E-01  2.00220E+00  3.02469E+00
 -1.21395E+00  3.86017E+00 -1.94987E+00  2.43954E+00 -3.73330E+00  2.51569E+00 -5.06003E+00 -1.31570E+00
 -1.85869E+00 -3.04301E+00 -1.27676E+00 -2.29378E+00  1.62115E-01 -3.38269E+00  1.65036E+00 -1.19874E+00
 -2.76672E-01 -1.10757E+00  1.34540E+00 -2.64001E+00  2.33813E+00 -9.24120E-01  2.41659E+00 -1.20141E+00
  4.51151E+00  8.68146E-01  2.08702E+00  3.96617E+00  1.35186E-02  2.96601E+00 -7.75848E-01  3.43724E+00
 -3.27745E+00  1.76998E+00 -1.63629E+00 -6.41589E-01 -1.01599E+00  7.70477E-01 -2.11792E+00 -2.05441E-01
 -1.07612E+00 -3.09903E-01 -2.81564E+00 -2.74227E-01 -2.20213E+00 -3.57070E+00  7.77384E-01 -3.33876E+00
  1.29899E+00 -2.82287E+00  3.72920E+00 -2.10638E+00  3.38300E+00  1.56335E+00  8.78401E-01  1.41325E+00
  1.29666E+00  1.20056E+00 -1.07829E-01  1.65893E+00  3.71667E-01 -3.97328E-02  1.69068E+00  1.92225E+00
 -8.05297E-01  2.91601E+00 -1.44005E+00  1.82900E+00 -2.93897E+00  2.02659E+00 -4.22149E+00 -1.25554E+00
 -1.30525E+00 -2.93544E+00 -4.78059E-01 -2.06991E+00  7.70888E-01 -2.65782E+00  1.96892E+00 -4.12224E-01
 -1.79733E-01  2.53276E-02  6.02913E-01 -1.51978E+00  1.25015E+00 -4.72431E-01  1.26369E+00 -1.15807E+00
  3.42122E+00  1.83108E-01  1.80402E+00  2.95341E+00  9.59935E-02  2.33215E+00 -6.04053E-01  2.90229E+00
 -3.04384E+00  1.54564E+00 -1.81457E+00 -9.77461E-01 -8.54899E-01 -1.62587E-01 -1.22002E+00 -9.80416E-01
  2.98011E-01 -6.26333E-01 -1.10621E+00  4.46522E-01 -1.43444E+00 -1.66796E+00  1.27076E-01 -1.59781E+00
 -1.00994E-01 -1.91151E+00  2.19177E+00 -2.41145E+00  2.97325E+00  4.16916E-01  1.51090E+00  1.01301E+00
  1.67272E+00  1.77386E+00 -6.08576E-01  2.64549E+00 -1.40585E+00  3.14034E-01 -1.23985E-01  3.33172E-01
 -8.24581E-01  2.67446E-01  4.02348E-01 -2.08123E-01 -3.17865E-02  1.82608E+00 -2.24050E+00  8.13519E-01
 -1.70612E+00 -5.38916E-01 -2.17732E+00 -1.20458E+00 -6.25766E-01 -3.54980E+00  2.38599E+00 -2.14204E+00
  1.97993E+00 -1.96222E-01  2.09676E+00  5.65087E-01  5.20394E-01  2.36534E+00 -1.72405E+00  4.65683E-01
 -7.36956E-02 -1.17575E+00  6.66213E-01 -5.46314E-01  1.78576E+00 -5.30228E-01  2.35811E+00  2.34320E+00
 -1.10184E+00  3.49850E+00 -2.64550E+00  1.32185E+00 -3.10797E+00 -7.25183E-02 -2.42378E+00 -3.04357E+00
  1.53935E+00 -3.21861E+00  2.29804E+00 -1.42357E-01  1.30539E+00  9.10655E-01 -2.23347E-02  2.15767E+00
 -2.88397E+00  5.45353E-01 -1.41614E+00 -2.89465E+00  1.38965E+00 -2.46969E+00  2.74223E+00 -1.40025E+00
  3.91060E+00  1.54464E+00  6.00494E-01  4.44765E+00 -2.68594E+00  2.35812E+00 -2.83555E+00  1.21026E-01
 -2.34835E+00 -2.23919E+00  1.29617E+00 -3.25525E+00  3.07943E+00  3.09929E-01  9.48282E-01  2.22861E+00
 -7.72221E-01  2.47451E+00 -3.50497E+00  1.19882E+00 -3.02207E+00 -3.04014E+00  9.11728E-01 -3.66498E+00
  2.61642E+00 -1.82981E+00  3.67878E+00  4.61428E-01  1.56209E+00  3.80170E+00 -2.43694E+00  2.56764E+00
 -2.53612E+00 -3.87431E-01 -1.63475E+00 -1.93124E+00  1.03787E+00 -3.14418E+00  3.67087E+00 -1.67329E-01
  1.58314E+00  2.80778E+00 -6.52496E-01  2.67622E+00 -2.78081E+00  1.91220E+00 -3.61134E+00 -1.69693E+00
 -8.56489E-02 -3.61710E+00  2.07870E+00 -1.75543E+00  2.70475E+00 -1.04390E-01  1.95273E+00  2.71966E+00
 -1.84040E+00  2.88767E+00 -2.76401E+00 -2.59111E-01 -1.58682E+00 -1.71174E+00  8.45024E-02 -2.97800E+00
  3.20247E+00 -1.53734E+00  2.51428E+00  2.03074E+00  5.91477E-02  2.47854E+00 -1.53824E+00  2.13385E+00
 -3.31162E+00 -1.51350E-01 -1.17933E+00 -3.13957E+00  1.69481E+00 -2.08857E+00  2.33421E+00 -4.78231E-01
  2.51032E+00  1.78401E+00 -5.35409E-01  3.50135E+00 -2.96501E+00  9.83199E-01 -2.15691E+00 -1.15609E+00
 -1.04288E+00 -2.52400E+00  2.00094E+00 -2.65440E+00  3.12990E+00  8.08095E-01  7.25181E-01  2.47112E+00
 -1.00499E+00  2.20196E+00 -3.08085E+00  8.17765E-01 -2.42630E+00 -2.79513E+00  1.18036E+00 -3.16400E+00
  2.60079E+00 -1.16749E+00  3.09620E+00  9.34204E-01  1.00658E+00  3.63331E+00 -2.62240E+00  2.30770E+00
 -2.59280E+00 -6.89345E-01 -1.32946E+00 -2.10406E+00  1.22574E+00 -2.84781E+00  3.50805E+00  7.47039E-02
  1.34003E+00  2.99641E+00 -1.20223E+00  2.65819E+00 -3.12702E+00  1.35439E+00 -3.47296E+00 -2.21035E+00
  2.20909E-01 -3.97384E+00  2.62195E+00 -1.79686E+00  2.88602E+00  3.30178E-01  1.62421E+00  2.83812E+00
 -2.03739E+00  2.57487E+00 -2.66443E+00 -8.20707E-01 -7.63609E-01 -2.22951E+00  1.26928E+00 -2.51513E+00
  3.66169E+00 -3.16324E-01  2.10914E+00  3.25179E+00 -1.12826E+00  3.13618E+00 -2.67237E+00  1.61821E+00
 -3.38999E+00 -1.01929E+00 -7.06373E-01 -3.36481E+00  2.01159E+00 -1.61549E+00  1.75614E+00  3.80962E-01
  9.23440E-01  1.70908E+00 -1.64261E+00  1.93332E+00 -2.64463E+00 -1.05959E+00 -4.09484E-01 -2.56520E+00
  1.22581E+00 -2.17990E+00  2.99647E+00 -9.45420E-01  2.61486E+00  2.14980E+00 -2.54789E-01  2.66558E+00
 -1.28275E+00  1.33770E+00 -1.84092E+00  2.58161E-01 -9.08169E-01 -1.57302E+00  1.21933E+00 -7.84879E-01
  7.12199E-01  8.55536E-01 -2.42368E-03  1.01722E+00 -1.10656E+00  1.39483E+00 -2.42949E+00 -3.34456E-01
 -9.69704E-01 -2.01632E+00  1.88668E-01 -1.67808E+00  1.11566E+00 -1.67968E+00  2.14516E+00 -1.23156E-01
  8.25081E-01  1.10025E+00  2.57101E-01  5.27353E-01  4.41238E-02  8.05579E-01 -5.95304E-01 -1.25447E-02
  5.84452E-01 -4.40959E-01  6.64269E-01  6.83131E-01  2.28545E-01  6.47955E-01  2.24687E-01  1.38247E+00
 -1.46327E+00  1.48721E+00 -1.86019E+00 -1.48176E-01 -1.41498E+00 -6.95370E-01 -1.12794E+00 -1.81058E+00
  8.50969E-01 -2.02251E+00  1.35847E+00 -3.65961E-01  8.26359E-01  4.94413E-02  6.01728E-01  6.84662E-01
 -7.72635E-01  3.87531E-01 -2.36959E-01 -1.25460E+00  1.23654E+00 -8.35178E-01  1.59749E+00 -7.36360E-02
  2.07869E+00  1.32385E+00  2.46592E-01  3.09025E+00 -2.04686E+00  1.92148E+00 -2.28350E+00  2.92123E-01
 -2.09394E+00 -1.22465E+00 -4.49418E-02 -2.30274E+00  1.48398E+00 -4.92948E-01  4.10271E-01  8.03757E-01
 -5.23044E-01  8.07410E-01 -1.85771E+00  1.12485E-01 -1.53245E+00 -2.40792E+00  1.28028E+00 -2.86220E+00
  2.68691E+00 -1.15704E+00  3.10226E+00  7.35298E-01  1.58425E+00  3.09594E+00 -1.44704E+00  2.55437E+00
 -1.88356E+00  2.96316E-01 -1.11017E+00 -7.93804E-01  4.18625E-01 -1.36279E+00  1.85627E+00  4.90324E-01
  1.02578E-01  2.41324E+00 -1.92077E+00  1.63649E+00 -2.90329E+00  1.44022E-01 -2.64142E+00 -2.47979E+00
  4.24429E-01 -3.64562E+00  2.40408E+00 -1.66320E+00  2.32560E+00  1.23241E-01  1.35393E+00  1.68556E+00
 -9.76697E-01  1.43886E+00 -1.08590E+00 -8.52444E-01  6.27114E-01 -1.28019E+00  1.68725E+00 -6.10865E-01
