 $NMID ID='cr', FMTDAT='(8E13.5)'
 TRAMP=1., VOLUME=1. $END
  3.17603E+01 -2.26487E-01  2.20517E+01  1.88258E+01  7.10195E+00  2.43178E+01 -8.05911E+00  2.29526E+01
 -1.88467E+01  8.69746E+00 -1.22565E+01 -5.18669E+00 -3.09409E+00 -6.59187E+00  4.02947E+00 -4.00003E+00
  6.52632E+00  7.15626E+00 -5.93101E+00  1.40997E+01 -1.68853E+01  6.60817E+00 -2.12878E+01 -4.32194E+00
 -1.79489E+01 -2.09134E+01  1.13569E+00 -2.98563E+01  1.79172E+01 -2.16690E+01  2.65552E+01 -8.63423E+00
  2.63718E+01  1.02358E+01  1.03122E+01  2.17868E+01 -3.60824E+00  1.73058E+01 -1.02630E+01  9.63783E+00
 -1.04995E+01 -2.29600E+00  1.48896E+00 -7.07758E+00  8.10632E+00  1.77321E+00  5.82377E+00  9.77782E+00
 -1.89950E+00  1.75124E+01 -1.85173E+01  1.51009E+01 -2.58070E+01 -1.58949E+00 -2.08656E+01 -1.60731E+01
 -8.86392E+00 -2.77569E+01  1.19930E+01 -2.72770E+01  2.31455E+01 -1.15072E+01  2.19949E+01  2.52284E+00
  1.44450E+01  1.43033E+01 -1.12274E+00  1.56771E+01 -7.43872E+00  4.48155E+00 -3.61445E+00 -2.45870E+00
  2.84285E+00 -5.93104E+00  1.31040E+01 -3.24628E-01  1.14186E+01  1.43493E+01 -8.30562E-01  2.05097E+01
 -1.37893E+01  1.95347E+01 -2.72881E+01  7.85861E+00 -2.60387E+01 -1.25801E+01 -1.24987E+01 -2.33309E+01
  2.31765E+00 -2.57531E+01  1.78097E+01 -1.71866E+01  1.94890E+01  1.32679E-02  1.05161E+01  8.07820E+00
  2.02029E+00  9.57288E+00 -6.40753E+00  3.33820E+00 -2.54529E+00 -7.93051E+00  8.54208E+00 -7.78347E+00
  1.48353E+01 -9.30137E-01  1.73778E+01  1.12575E+01  6.15203E+00  2.47339E+01 -1.16799E+01  2.33854E+01
 -2.27373E+01  1.31289E+01 -2.78767E+01 -2.96216E+00 -1.80910E+01 -2.00015E+01 -1.22877E+00 -2.21965E+01
  9.32204E+00 -1.60083E+01  1.51792E+01 -4.96675E+00  8.63008E+00  6.74827E+00 -2.21498E+00  5.13369E+00
 -4.94328E+00 -1.72951E+00 -3.16707E+00 -9.33712E+00  8.32854E+00 -1.42123E+01  2.01501E+01 -4.50940E+00
  2.00593E+01  9.47388E+00  1.30553E+01  2.15034E+01 -3.98967E+00  2.78614E+01 -2.05000E+01  1.77370E+01
 -2.40695E+01  2.44284E+00 -2.02045E+01 -1.11173E+01 -6.52776E+00 -1.95997E+01  6.72586E+00 -1.31801E+01
  8.33474E+00 -3.45574E+00  5.17262E+00  3.23985E+00 -4.17741E+00  5.35038E+00 -1.01905E+01 -4.69463E+00
 -3.59022E+00 -1.40908E+01  6.45950E+00 -1.65355E+01  1.94619E+01 -1.20324E+01  2.56489E+01  4.71334E+00
  1.67360E+01  1.94019E+01  3.27864E+00  2.51505E+01 -1.30090E+01  2.25191E+01 -2.23652E+01  7.18178E+00
 -1.71459E+01 -6.45023E+00 -8.32912E+00 -1.20455E+01  2.54627E+00 -1.12983E+01  7.19692E+00 -7.36830E-01
 -1.66602E-01  5.82586E+00 -7.40899E+00  3.68825E+00 -1.29407E+01 -3.16548E+00 -1.01269E+01 -1.63098E+01
  4.53326E+00 -2.16660E+01  1.71262E+01 -1.54689E+01  2.52090E+01 -3.45983E+00  2.27769E+01  1.43293E+01
  7.44753E+00  2.34537E+01 -6.22633E+00  2.04779E+01 -1.57821E+01  1.17822E+01 -1.60997E+01 -2.42366E+00
 -5.50152E+00 -8.73807E+00  1.81419E+00 -5.11174E+00  4.66143E+00  9.51776E-01  8.57172E-02  9.17694E+00
 -1.18615E+01  7.75337E+00 -1.66509E+01 -3.18759E+00 -1.40019E+01 -1.41506E+01 -2.99283E+00 -2.38933E+01
  1.44876E+01 -2.12639E+01  2.31629E+01 -7.63854E+00  2.28704E+01  6.30896E+00  1.35594E+01  1.88522E+01
 -2.38912E+00  1.94379E+01 -1.01952E+01  1.00127E+01 -1.06286E+01  1.24300E+00 -4.70087E+00 -6.06979E+00
  5.14982E+00 -3.25516E+00  5.51672E+00  6.25698E+00 -8.29223E-01  1.13734E+01 -1.07880E+01  1.21968E+01
 -2.09681E+01  2.20690E+00 -1.85807E+01 -1.32094E+01 -7.77413E+00 -2.18713E+01  6.70340E+00 -2.39009E+01
  2.06278E+01 -1.38340E+01  2.14786E+01  2.14893E+00  1.39191E+01  1.17571E+01  3.06621E+00  1.56579E+01
 -7.42120E+00  9.33232E+00 -6.48013E+00 -9.60306E-01  3.66169E-04 -3.95366E+00  6.38635E+00 -2.09606E+00
  9.91788E+00  7.10419E+00  1.61912E+00  1.65136E+01 -1.06209E+01  1.53831E+01 -1.98264E+01  7.67785E+00
 -2.32530E+01 -7.11924E+00 -1.30815E+01 -2.07753E+01  1.68592E+00 -2.24793E+01  1.33926E+01 -1.67435E+01
  1.95157E+01 -3.76796E+00  1.30067E+01  8.39590E+00  3.04417E+00  9.87132E+00 -3.31785E+00  6.17667E+00
 -5.07600E+00 -1.92476E+00  3.01207E+00 -7.21848E+00  1.09747E+01 -1.69346E+00  1.21523E+01  7.14215E+00
  7.16861E+00  1.70670E+01 -7.09139E+00  2.09124E+01 -1.93449E+01  1.18488E+01 -2.25902E+01 -1.17945E+00
 -1.80987E+01 -1.47993E+01 -3.74811E+00 -2.17844E+01  8.93231E+00 -1.58741E+01  1.33353E+01 -6.37834E+00
  1.15550E+01  3.50457E+00  2.02599E+00  7.74413E+00 -4.39477E+00  1.54499E+00 -2.63920E+00 -5.03733E+00
  3.28143E+00 -9.09085E+00  1.35009E+01 -6.23951E+00  1.72229E+01  6.19922E+00  1.05330E+01  1.66846E+01
 -8.26319E-01  2.17810E+01 -1.55115E+01  1.78738E+01 -2.24085E+01  3.47579E+00 -1.79929E+01 -9.16613E+00
 -8.62381E+00 -1.65269E+01  4.13999E+00 -1.56453E+01  9.97328E+00 -5.55775E+00  6.42735E+00  1.88849E+00
  5.90561E-01  4.33072E+00 -6.17887E+00  5.67335E-01 -5.11311E+00 -9.07767E+00  4.26114E+00 -1.27778E+01
  1.32522E+01 -9.28355E+00  1.99093E+01  6.71454E-01  1.62986E+01  1.51066E+01  3.29255E+00  2.16268E+01
 -9.26342E+00  1.92558E+01 -1.89437E+01  9.60627E+00 -1.82894E+01 -4.77873E+00 -8.67192E+00 -1.18223E+01
  1.00715E-01 -1.12480E+01  6.38639E+00 -5.39165E+00  4.22007E+00  3.33057E+00 -3.94018E+00  4.16026E+00
 -8.22233E+00 -1.41567E+00 -8.04573E+00 -9.42390E+00  5.51022E-01 -1.68784E+01  1.33881E+01 -1.38560E+01
  1.98025E+01 -3.30654E+00  1.94498E+01  9.26415E+00  9.46876E+00  2.01186E+01 -5.09383E+00  1.96082E+01
 -1.33902E+01  1.12102E+01 -1.54621E+01  7.82121E-01 -9.14079E+00 -8.34769E+00  5.50165E-01 -7.66159E+00
  3.72786E+00 -1.51820E+00  1.94660E+00  4.04934E+00 -5.40095E+00  6.70289E+00 -1.27884E+01 -1.59217E-01
 -1.10975E+01 -1.04708E+01 -3.43358E+00 -1.72468E+01  9.02038E+00 -1.84097E+01  1.97978E+01 -8.59572E+00
  1.98541E+01  4.97675E+00  1.29092E+01  1.46687E+01  8.60771E-01  1.85437E+01 -9.86119E+00  1.18689E+01
 -1.09144E+01  1.99883E+00 -6.73646E+00 -3.97414E+00  4.99083E-01 -5.34667E+00  5.22719E+00  1.24011E+00
  7.92636E-01  7.98952E+00 -6.72479E+00  8.45351E+00 -1.41289E+01  3.52614E+00 -1.61586E+01 -8.25789E+00
 -7.44882E+00 -1.80301E+01  4.50814E+00 -1.92452E+01  1.54827E+01 -1.35408E+01  2.01632E+01 -4.63150E-01
  1.37314E+01  1.07781E+01  4.04295E+00  1.39050E+01 -4.79572E+00  1.11516E+01 -8.39144E+00  2.41799E+00
 -3.03048E+00 -3.74518E+00  3.01297E+00 -2.42093E+00  6.13575E+00  2.62476E+00  3.51208E+00  1.04968E+01
 -6.71836E+00  1.29675E+01 -1.51211E+01  6.38913E+00 -1.78829E+01 -3.84089E+00 -1.30517E+01 -1.55429E+01
  6.94057E-03 -2.02754E+01  1.11355E+01 -1.48614E+01  1.64047E+01 -5.32782E+00  1.43678E+01  5.87623E+00
  4.80304E+00  1.08716E+01 -2.49836E+00  7.28629E+00 -4.59754E+00  1.58317E+00 -1.41402E+00 -4.14973E+00
  6.38573E+00 -3.46582E+00  9.29579E+00  4.30896E+00  5.58348E+00  1.14993E+01 -3.06762E+00  1.57668E+01
 -1.45814E+01  1.16247E+01 -1.90894E+01 -2.31937E-01 -1.52858E+01 -1.10503E+01 -5.75290E+00 -1.80790E+01
  6.82542E+00 -1.62503E+01  1.27551E+01 -6.73575E+00  1.12513E+01  1.72333E+00  5.37696E+00  6.99104E+00
 -2.40139E+00  5.13460E+00 -3.57266E+00 -1.93112E+00  1.17282E+00 -5.65302E+00  7.56150E+00 -5.00784E+00
  1.28943E+01  2.15398E+00  9.63239E+00  1.24886E+01 -7.79264E-02  1.69477E+01 -1.05968E+01  1.49399E+01
 -1.86118E+01  5.43606E+00 -1.69074E+01 -7.33097E+00 -8.19318E+00 -1.40913E+01  1.52476E+00 -1.45408E+01
  9.19245E+00 -8.17632E+00  8.43796E+00  8.21515E-01  2.57564E+00  4.02300E+00 -2.44128E+00  2.34585E+00
 -4.54646E+00 -3.57551E+00  9.61159E-01 -9.36835E+00  9.38760E+00 -7.50859E+00  1.41886E+01 -4.10708E-01
  1.37639E+01  9.74190E+00  4.67554E+00  1.78416E+01 -7.25587E+00  1.65832E+01 -1.49005E+01  9.06611E+00
 -1.67819E+01 -1.81014E+00 -1.00120E+01 -1.08628E+01 -5.59832E-01 -1.13011E+01  4.89192E+00 -6.72755E+00
  5.81678E+00 -1.35705E-01  3.23722E-01  4.10682E+00 -5.45232E+00  6.53443E-01 -5.60511E+00 -5.60781E+00
 -1.09462E+00 -1.10470E+01  8.36323E+00 -1.17999E+01  1.58323E+01 -3.83516E+00  1.55309E+01  6.63510E+00
  9.24212E+00  1.51138E+01 -2.31972E+00  1.77423E+01 -1.18252E+01  1.10460E+01 -1.36791E+01  1.62296E+00
 -1.01123E+01 -6.07470E+00 -2.07352E+00 -8.86218E+00  3.69199E+00 -4.06571E+00  2.72593E+00  1.53575E+00
 -1.57748E+00  4.10014E+00 -7.64970E+00  1.85168E+00 -9.25184E+00 -6.34011E+00 -3.21298E+00 -1.28597E+01
  5.60588E+00 -1.39237E+01  1.45844E+01 -8.70487E+00  1.74064E+01  2.72883E+00  1.14527E+01  1.20722E+01
  2.23508E+00  1.54435E+01 -7.31166E+00  1.24392E+01 -1.12510E+01  3.48758E+00 -7.55289E+00 -3.39595E+00
 -1.96885E+00 -5.12414E+00  2.99410E+00 -2.30555E+00  2.64577E+00  4.07484E+00 -3.65598E+00  6.45516E+00
 -9.31234E+00  2.94852E+00 -1.18456E+01 -4.29925E+00 -7.59211E+00 -1.31764E+01  2.77401E+00 -1.59662E+01
  1.16997E+01 -1.13408E+01  1.63992E+01 -2.34866E+00  1.36157E+01  8.28113E+00  4.50640E+00  1.29106E+01
 -3.33269E+00  1.06063E+01 -7.56650E+00  4.74605E+00 -5.76729E+00 -2.17803E+00  4.35844E-01 -3.52660E+00
  3.78529E+00  4.59304E-01  3.01879E+00  5.57058E+00 -2.77686E+00  9.34476E+00 -1.08559E+01  6.17213E+00
 -1.37378E+01 -2.33694E+00 -1.07395E+01 -1.08166E+01 -2.05396E+00 -1.63615E+01  8.71745E+00 -1.37490E+01
  1.38741E+01 -5.19412E+00  1.29807E+01  3.54738E+00  6.65597E+00  9.70818E+00 -1.53305E+00  8.67643E+00
 -4.56739E+00  3.06789E+00 -2.95093E+00 -1.54317E+00  1.91884E+00 -3.29807E+00  6.51193E+00  1.02366E+00
  4.76354E+00  7.75854E+00 -1.45619E+00  1.10491E+01 -9.47415E+00  9.64899E+00 -1.52500E+01  1.56657E+00
 -1.30705E+01 -8.49351E+00 -5.54176E+00 -1.41939E+01  3.96125E+00 -1.44356E+01  1.12536E+01 -7.74127E+00
  1.09985E+01  1.00166E+00  6.16357E+00  5.78245E+00  1.23098E-01  6.20628E+00 -3.64955E+00  1.48091E+00
 -9.93941E-01 -3.52922E+00  4.17203E+00 -3.62560E+00  8.15593E+00  2.73924E-01  8.11423E+00  7.66556E+00
  1.15235E+00  1.31501E+01 -7.63694E+00  1.18369E+01 -1.38804E+01  5.50848E+00 -1.48298E+01 -4.38084E+00
 -8.16443E+00 -1.20379E+01  6.02079E-01 -1.27208E+01  7.07340E+00 -8.57366E+00  8.97441E+00 -1.22834E+00
  4.54929E+00  3.99468E+00 -6.60737E-01  3.25380E+00 -2.88548E+00 -4.67204E-01 -1.05235E+00 -5.21351E+00
