 $NMID ID='gaba', FMTDAT='(8E13.5)'
 TRAMP=1., VOLUME=1. $END
  3.75533E+01  1.14973E-01  1.28234E+01  3.29391E+01 -2.13137E+01  2.17407E+01 -2.44496E+01 -7.64118E+00
 -2.68430E+00 -2.14200E+01  1.53968E+01 -6.46581E+00  4.12272E+00  9.95152E+00 -7.69995E+00 -7.99163E-01
  3.72531E+00 -9.06521E+00  1.21969E+01  1.61857E+00  5.34833E+00  1.40725E+01 -1.22196E+01  1.38913E+01
 -1.94078E+01 -6.16110E+00 -2.16013E+00 -1.85053E+01  1.09126E+01 -9.22757E+00  1.16774E+01 -2.24049E-01
  9.83358E+00  8.03162E+00  4.31465E-01  1.34140E+01 -9.24247E+00  1.01467E+01 -1.68688E+01  8.14473E-01
 -1.22922E+01 -1.76495E+01  1.21919E+01 -2.03737E+01  2.22175E+01  2.92756E+00  6.24827E+00  1.81889E+01
 -1.14107E+01  1.19286E+01 -1.28531E+01 -5.92407E+00  4.46312E+00 -1.04225E+01  7.80761E+00  7.01632E+00
 -1.09018E+01  8.11844E+00 -1.25931E+01 -1.22889E+01  8.33349E+00 -1.97679E+01  2.60970E+01 -1.18882E+00
  1.36049E+01  2.77314E+01 -2.25551E+01  2.45554E+01 -3.00629E+01 -1.14188E+01 -2.09270E+00 -2.84061E+01
  2.08708E+01 -1.32833E+01  1.85460E+01  1.10335E+01 -2.97237E+00  1.70347E+01 -1.09627E+01  6.58876E-01
  2.48439E-01 -4.36274E+00  9.72366E-01  3.47387E+00 -5.83765E+00  2.32904E+00 -7.07017E+00 -4.98296E+00
  6.41035E-01 -1.17896E+01  1.29928E+01 -5.24641E+00  9.58868E+00  9.10458E+00 -1.45135E+00  9.81174E+00
 -5.26728E+00  6.31346E+00 -1.00643E+01  2.32582E+00 -9.63307E+00 -7.37785E+00 -1.11769E+00 -1.32605E+01
  1.13458E+01 -1.19354E+01  2.03832E+01  4.40491E+00  4.95411E+00  2.28343E+01 -1.84562E+01  1.32893E+01
 -1.79157E+01 -9.51052E+00  9.37292E-02 -1.80522E+01  1.49965E+01 -6.00135E+00  7.19174E+00  1.12724E+01
 -9.22267E+00  4.77603E+00 -2.05753E+00 -9.77052E+00  1.19577E+01 -2.40225E+00  7.28417E+00  1.34912E+01
 -1.20058E+01  1.53656E+01 -2.30977E+01 -6.39187E+00 -2.47960E+00 -2.65380E+01  2.34140E+01 -1.20160E+01
  1.90269E+01  1.43704E+01 -2.72638E+00  2.11812E+01 -1.80790E+01  7.10686E+00 -1.17451E+01 -1.14228E+01
  4.20143E+00 -1.03880E+01  5.04428E+00 -7.07360E-01  1.84011E+00 -6.63499E-01  3.44181E+00 -2.81656E-01
  3.57280E+00  2.00415E+00  2.38323E+00  5.57197E+00 -4.78086E+00  6.73438E+00 -8.07514E+00 -1.47114E+00
 -2.45638E+00 -5.13577E+00 -8.94314E-01 -4.49309E+00  2.90270E+00 -6.93639E+00  9.60636E+00 -2.25404E+00
  8.99071E+00  6.97609E+00  4.02800E-01  1.42601E+01 -1.53949E+01  9.73104E+00 -1.73097E+01 -1.14154E+01
  3.53886E+00 -2.03053E+01  1.80284E+01 -5.37942E+00  1.21890E+01  1.21068E+01 -5.51835E+00  1.49182E+01
 -1.36252E+01 -1.00837E+00 -2.55722E-01 -1.02192E+01  7.34205E+00  8.62970E-01 -2.11274E+00  6.91041E+00
 -9.07585E+00 -1.20531E+00 -2.85520E+00 -1.21512E+01  1.35457E+01 -9.15930E+00  1.53023E+01  1.12184E+01
 -4.88715E+00  1.85828E+01 -1.73696E+01  3.65777E+00 -1.13228E+01 -1.19274E+01  4.31442E+00 -1.51852E+01
  1.39207E+01 -2.59259E+00  6.42549E+00  8.45586E+00 -1.50367E+00  6.35621E+00 -3.33273E+00  3.78243E+00
 -5.34011E+00  5.38953E-01 -3.12747E+00 -3.13744E+00 -9.53683E-01 -3.32900E+00  1.52397E+00 -4.26236E+00
  4.80469E+00 -7.56662E-01  1.74568E+00  2.36229E+00  1.41616E+00  4.45228E-01  2.79536E+00  3.93592E+00
 -3.10670E+00  6.41300E+00 -8.39525E+00  1.45310E+00 -8.10328E+00 -7.28651E+00  2.92711E+00 -1.39318E+01
  1.61886E+01 -3.42122E+00  9.63021E+00  1.36524E+01 -7.23224E+00  1.36479E+01 -1.43853E+01  4.99876E-01
 -6.59856E+00 -1.21199E+01  8.25674E+00 -9.17244E+00  8.22030E+00  4.58073E+00 -2.38705E+00  5.46589E+00
 -3.30708E+00 -1.91004E+00  2.31921E+00 -3.46113E+00  6.02920E+00  2.25935E+00 -6.48365E-01  9.46789E+00
 -1.14651E+01  2.67738E+00 -6.79696E+00 -1.02350E+01  5.54618E+00 -1.01077E+01  1.10986E+01 -1.07471E+00
  7.05542E+00  9.11437E+00 -4.72516E+00  1.00376E+01 -9.02006E+00  4.74706E-01 -4.56689E+00 -4.80765E+00
 -4.49397E-01 -6.15878E+00  4.98312E+00 -4.36136E+00  5.46618E+00  1.95734E+00  1.31732E+00  3.85977E+00
 -9.94181E-01  3.36388E+00 -3.54002E+00  1.21131E+00 -1.45012E+00 -2.29866E+00  8.73728E-01  2.76215E-01
 -2.69949E+00  5.59755E-01 -1.96201E+00 -4.01512E+00  2.89490E+00 -4.60971E+00  7.14290E+00 -7.60921E-01
  5.72076E+00  7.98822E+00 -6.18180E+00  1.00089E+01 -1.18665E+01 -1.91870E+00 -3.46490E+00 -1.05839E+01
  6.79841E+00 -8.07957E+00  1.03531E+01  2.11683E+00  1.69478E+00  9.75125E+00 -6.98381E+00  3.54763E+00
 -3.45813E+00 -3.59797E+00  1.17403E+00 -2.39013E+00  1.63046E+00  5.35075E-01 -1.38017E+00  2.04995E+00
 -3.64021E+00 -2.52392E+00  2.60596E+00 -5.54930E+00  6.57294E+00  8.89937E-01  2.27694E+00  5.82410E+00
 -3.22750E+00  5.59299E+00 -7.45759E+00  4.07817E-01 -3.76047E+00 -6.81090E+00  3.71675E+00 -5.61190E+00
  5.39137E+00 -6.21043E-01  4.42342E+00  3.39291E+00 -5.79931E-01  6.19135E+00 -5.41310E+00  1.90076E+00
 -3.24291E+00 -2.76187E+00 -3.06102E-01 -3.28983E+00  2.50287E+00 -2.33197E+00  2.59843E+00  1.63582E+00
 -1.30147E+00  1.44969E+00 -3.15074E-02 -1.65289E+00  2.32873E+00  3.94773E-01  8.12723E-01  2.67141E+00
 -2.09447E+00  3.29014E+00 -5.83566E+00 -4.10061E-01 -2.04233E+00 -7.03788E+00  6.02774E+00 -4.52169E+00
  6.20056E+00  2.95321E+00  1.07044E+00  6.51784E+00 -5.40868E+00  4.50548E+00 -6.13978E+00 -3.31345E+00
  9.71650E-01 -5.64885E+00  3.68848E+00 -8.98028E-01  1.88401E+00  1.48811E+00 -1.77805E-01  2.01104E+00
 -1.66207E+00 -2.11240E-01  1.18480E+00 -1.34350E+00  1.40876E+00  2.12890E+00 -2.09637E+00  1.87666E+00
 -2.42808E+00 -7.19116E-01 -1.56774E+00 -2.58266E+00  1.96730E+00 -3.74609E+00  4.75155E+00  5.43278E-01
  1.32410E+00  4.03303E+00 -1.83910E+00  2.99557E+00 -3.83250E+00  9.12809E-01 -3.10098E+00 -3.48881E+00
  2.07851E+00 -3.94593E+00  3.35312E+00  1.33494E-01  1.63228E+00  1.88809E+00 -4.20160E-01  2.64210E+00
 -2.70479E+00  3.57660E-01 -2.71983E-01 -2.07034E+00  1.26810E+00  2.95960E-01 -6.80940E-01  8.10262E-01
 -9.14849E-01 -3.44430E-01 -8.06002E-01 -1.39353E+00  1.76283E+00 -2.35710E+00  3.61061E+00  1.52309E+00
 -4.56600E-01  3.95295E+00 -3.17055E+00  1.21474E+00 -2.90271E+00 -1.54818E+00 -2.89452E-01 -3.92598E+00
  3.84478E+00 -1.69365E+00  2.29161E+00  2.68444E+00 -9.29754E-01  2.11952E+00 -1.53551E+00  7.10190E-01
 -1.64488E+00 -9.82495E-01  7.40944E-01 -1.67653E+00  1.06493E+00  8.03973E-01 -9.28581E-01  3.53634E-01
 -5.52593E-02 -8.15806E-01  3.06804E-01 -3.66479E-01  1.06649E+00 -5.15501E-01  1.36830E+00  1.65110E+00
 -1.62625E+00  1.91956E+00 -1.95720E+00 -7.99589E-01 -5.90790E-01 -1.48434E+00  6.97961E-01 -1.98097E+00
  2.76448E+00 -1.23854E-01  7.56218E-01  2.60102E+00 -1.58687E+00  1.10942E+00 -1.22531E+00 -1.97612E-01
 -9.62429E-01 -1.20628E+00  1.13161E+00 -1.46626E+00  1.26343E+00  1.01265E+00 -8.08133E-01  6.69583E-01
 -1.61680E-01 -4.78894E-01  3.94754E-02 -9.76297E-02  5.17118E-01 -4.30321E-01  8.20422E-01  1.13055E+00
 -1.49592E+00  1.04722E+00 -1.09301E+00 -1.28005E+00  4.56536E-01 -1.00345E+00  8.46627E-01 -6.69389E-01
  1.61917E+00  6.63302E-01 -4.44444E-01  1.99241E+00 -1.67115E+00 -1.51676E-01 -2.32510E-01 -8.68514E-01
 -8.18754E-04 -6.61518E-01  1.02146E+00 -5.48874E-01  6.13543E-01  1.17820E+00 -1.05039E+00  3.20747E-01
  1.74250E-02 -6.64753E-01  1.57165E-01  1.02268E-01  1.71891E-01 -2.87516E-01  5.26211E-01  6.59686E-01
 -1.05715E+00  5.28429E-01 -3.85213E-01 -1.08603E+00  6.60872E-01 -2.50016E-01  2.43953E-01 -5.71828E-02
  7.48286E-01  3.80844E-01 -5.56683E-01  1.11038E+00 -1.02117E+00 -6.11468E-01  4.28828E-01 -5.94415E-01
  1.01912E-01  1.53706E-02  4.88072E-01 -1.89212E-01  1.67595E-01  8.72826E-01 -9.70842E-01 -7.00877E-02
  2.91910E-01 -7.45111E-01  3.10680E-01  2.82306E-01  2.01469E-02 -1.26333E-01  3.77929E-01  4.80486E-01
 -8.45077E-01  3.70861E-01 -1.77451E-01 -8.92457E-01  5.67356E-01  3.51262E-02 -1.06600E-01  1.84799E-02
  4.82803E-01  2.25719E-02 -2.78644E-01  6.95345E-01 -5.43731E-01 -5.00298E-01  5.35126E-01 -1.57300E-01
 -2.09475E-01  3.30195E-01  3.52656E-02 -3.28344E-01  1.31832E-01  3.92777E-01 -5.77807E-01 -2.48010E-01
  5.59054E-01 -5.18769E-01  2.71927E-01  5.80417E-01 -2.57117E-01 -1.60512E-02  1.94099E-01  2.61347E-01
 -7.01890E-01  1.90428E-01 -4.63511E-02 -8.22605E-01  5.52267E-01  1.17213E-01 -1.77499E-01  3.40800E-02
  4.52742E-01 -8.49438E-02 -1.09229E-01  6.49164E-01 -4.61628E-01 -2.87350E-01  3.39101E-01 -1.35944E-02
 -4.26119E-01  2.29208E-01 -1.84303E-02 -5.97149E-01  3.95958E-01  1.74202E-01 -2.43784E-01 -6.56547E-02
  5.24673E-01 -1.62339E-01 -6.11809E-03  7.17068E-01 -5.27858E-01 -1.46776E-01  1.66090E-01 -5.65913E-02
 -4.39002E-01  4.99435E-02  1.27444E-01 -6.88329E-01  5.59462E-01  2.49713E-01 -2.31497E-01  1.31695E-01
  3.51225E-01 -7.35417E-02 -1.34662E-01  6.19332E-01 -5.27348E-01 -2.67554E-01  2.40277E-01 -1.33486E-01
 -3.36964E-01  6.31166E-02  1.60569E-01 -6.20706E-01  5.64061E-01  2.93477E-01 -2.46554E-01  2.05973E-01
  2.48723E-01 -3.54076E-02 -2.24301E-01  5.48057E-01 -5.34908E-01 -3.81309E-01  3.37249E-01 -2.31742E-01
 -1.78037E-01  1.06756E-01  1.86833E-01 -4.58439E-01  4.55598E-01  3.79727E-01 -3.61697E-01  1.81827E-01
  1.97043E-01 -1.41336E-01 -1.56127E-01  4.60638E-01 -4.60941E-01 -3.58703E-01  3.46135E-01 -2.03840E-01
 -1.59343E-01  1.20472E-01  1.92636E-01 -4.22791E-01  4.44985E-01  4.13796E-01 -4.11739E-01  2.26672E-01
  9.53171E-02 -1.79343E-01 -1.60184E-01  3.32077E-01 -3.53367E-01 -4.21338E-01  4.60182E-01 -1.60497E-01
 -1.19855E-01  2.55338E-01  7.96693E-02 -3.14689E-01  3.08401E-01  3.60139E-01 -4.33524E-01  1.09700E-01
  1.56812E-01 -2.64047E-01 -4.90145E-02  3.27690E-01 -2.99501E-01 -3.28939E-01  4.21641E-01 -9.05219E-02
 -1.71077E-01  2.81069E-01  7.77582E-03 -3.24730E-01  2.74248E-01  2.80099E-01 -3.86271E-01  4.61706E-02
  2.25063E-01 -2.75470E-01  2.11636E-02  3.76489E-01 -3.13601E-01 -2.24743E-01  3.20891E-01 -6.75574E-02
 -2.21711E-01  2.16532E-01  2.25528E-02 -3.87138E-01  3.33145E-01  2.55579E-01 -3.49516E-01  9.35054E-02
  1.86681E-01 -2.54265E-01  2.71493E-02  3.35332E-01 -2.55526E-01 -2.05245E-01  3.22991E-01  1.39155E-02
 -3.16331E-01  2.80683E-01 -1.27595E-01 -4.64654E-01  3.49872E-01  2.94565E-02 -9.58069E-02  8.01183E-03
