 $NMID ID='glc', FMTDAT='(8E13.5)'
 TRAMP=1., VOLUME=1. $END
  4.36533E+01 -5.62247E-01  3.50169E+01  1.91964E+01  2.12733E+01  2.85176E+01  3.29313E+00  3.37450E+01
 -1.67404E+01  2.43971E+01 -2.33888E+01  8.07966E+00 -2.45351E+01 -5.42113E+00 -1.73457E+01 -2.06945E+01
 -1.62721E+00 -2.41970E+01  7.55725E+00 -1.95798E+01  1.61565E+01 -1.35740E+01  1.86153E+01 -2.35647E-01
  1.17277E+01  6.77633E+00  8.28746E+00  9.16659E+00  1.80829E+00  1.12790E+01 -1.73421E+00  5.15875E+00
  2.29616E+00  3.00305E+00  2.76379E+00  3.10494E+00  6.96236E+00  1.75638E+00  9.31104E+00  7.72231E+00
  4.71485E+00  9.70987E+00  3.45752E+00  9.39537E+00 -2.05780E+00  1.00860E+01 -6.38192E+00  2.49773E+00
 -3.79705E+00 -2.73504E+00 -3.51445E+00 -7.02830E+00  2.69932E+00 -1.29213E+01  9.86808E+00 -9.99168E+00
  1.18267E+01 -7.32041E+00  1.65164E+01 -2.69554E+00  1.43905E+01  6.60228E+00  8.87782E+00  9.55126E+00
  5.34802E+00  1.35788E+01 -3.91614E+00  1.48673E+01 -8.55583E+00  9.16546E+00 -1.01949E+01  6.53883E+00
 -1.23855E+01 -1.21323E-01 -6.09193E+00 -6.10978E+00 -8.37552E-01 -5.56135E+00  4.50705E+00 -6.73214E+00
  1.22716E+01 -1.49106E+00  1.18410E+01  5.96896E+00  1.08983E+01  9.19926E+00  7.37769E+00  1.49995E+01
 -1.22908E+00  1.38138E+01 -3.70056E+00  8.34245E+00 -6.18102E+00  4.41098E+00 -5.28273E+00 -4.34836E+00
  2.53173E+00 -7.44431E+00  6.38645E+00 -5.92664E+00  1.15801E+01 -4.25201E+00  1.35730E+01  4.54178E+00
  7.41699E+00  9.96896E+00  2.86979E+00  1.19601E+01 -5.37203E+00  1.35495E+01 -1.21877E+01  6.59458E+00
 -1.12802E+01  6.91722E-01 -1.07638E+01 -3.82319E+00 -4.36886E+00 -9.06521E+00  3.30605E+00 -5.67825E+00
  5.52096E+00 -1.82096E+00  9.18760E+00  2.79295E+00  6.91148E+00  1.02796E+01  2.10002E+00  1.07321E+01
  9.53066E-01  1.10735E+01 -3.24022E+00  1.00746E+01 -2.72296E+00  4.89156E+00 -8.07209E-02  5.05297E+00
 -9.10644E-01  3.98048E+00  1.70071E+00  3.19822E+00  2.21595E-01  5.96963E+00 -2.96356E+00  3.19617E+00
 -2.34338E+00  1.46492E+00 -4.68733E+00 -4.98020E-01 -2.53314E+00 -5.72896E+00  1.89851E+00 -4.89933E+00
  2.97871E+00 -4.00873E+00  6.98383E+00 -1.55448E+00  6.05743E+00  5.55883E+00  1.75084E+00  7.81434E+00
 -6.59735E-01  1.03906E+01 -7.27787E+00  1.10569E+01 -9.92223E+00  5.97737E+00 -9.24687E+00  4.12495E+00
 -9.65359E+00  5.09671E-01 -4.49800E+00 -2.28503E+00 -1.53456E+00  2.67145E-01 -3.83562E-01  2.11590E-02
  2.82658E+00  2.31009E+00  8.94044E-01  4.82505E+00  7.91604E-01  2.91956E+00  1.79581E+00  4.28689E+00
 -1.61077E-01  3.35599E+00  1.98730E+00  2.00429E+00  1.51959E+00  4.63244E+00 -7.77977E-01  3.52660E+00
 -6.56960E-01  4.03299E+00 -4.82291E+00  4.34141E+00 -6.39739E+00  1.11348E-01 -5.73375E+00 -8.98486E-01
 -6.76254E+00 -3.58188E+00 -2.73407E+00 -5.79260E+00 -4.47587E-01 -2.75349E+00  5.20403E-02 -1.76928E+00
  2.20358E+00  1.99929E+00 -1.11450E+00  6.26700E+00 -3.56702E+00  5.76842E+00 -5.05056E+00  7.05305E+00
 -8.69308E+00  4.84453E+00 -6.96747E+00  1.01173E+00 -5.50149E+00  8.14140E-01 -4.06623E+00 -1.85066E+00
  5.70744E-01 -1.32137E+00  7.85073E-01  1.14113E+00  1.60306E+00  6.49542E-01  2.31268E+00  3.27785E+00
 -7.89528E-01  3.31804E+00 -4.75688E-01  1.59475E+00 -1.66595E+00  2.58240E+00 -3.52908E+00  1.74493E-02
 -2.04747E+00 -6.54215E-01 -3.97349E+00 -1.21846E-01 -4.21290E+00 -2.63368E+00 -3.32426E+00 -1.75317E+00
 -5.22991E+00 -2.50549E+00 -3.32037E+00 -4.03529E+00 -2.67337E+00 -1.95729E+00 -2.96433E+00 -2.53948E+00
 -4.68293E-01 -9.25860E-01 -1.84529E+00  1.96619E+00 -2.25660E+00  1.56552E+00 -1.99901E+00  3.78210E+00
 -4.74155E+00  3.63577E+00 -3.83316E+00  1.76657E+00 -3.85157E+00  2.59044E+00 -4.42951E+00  2.60875E-01
 -1.80759E+00 -3.25638E-01 -2.45852E+00  3.61785E-01 -1.89685E+00 -1.92295E+00 -4.31276E-01 -1.26276E+00
 -1.84388E+00 -2.23495E+00  1.37620E-01 -4.22536E+00  9.87356E-01 -2.81401E+00  7.21347E-01 -3.67121E+00
  2.82483E+00 -2.30647E+00  8.76068E-01  6.08062E-01 -8.64470E-01  4.01559E-01 -2.30978E+00  2.26636E+00
 -6.65193E+00  1.46341E+00 -7.11048E+00 -1.62311E+00 -7.28985E+00 -2.33616E+00 -6.87592E+00 -5.49273E+00
 -2.47435E+00 -6.00639E+00 -8.52421E-01 -3.70875E+00  1.09934E+00 -2.88631E+00  2.58046E+00  1.23326E+00
 -2.90941E-01  3.40901E+00 -1.14951E+00  2.91461E+00 -2.98634E+00  3.45582E+00 -4.76544E+00 -4.21307E-02
 -2.19839E+00 -2.55205E+00 -1.17277E+00 -3.07244E+00  1.34568E+00 -4.84090E+00  4.22685E+00 -2.41001E+00
  2.82006E+00 -3.96243E-01  2.44799E+00  1.59897E-01 -1.57313E-01  2.19936E+00 -3.97611E+00 -4.92781E-02
 -4.12101E+00 -2.45008E+00 -5.32249E+00 -4.05845E+00 -3.87963E+00 -7.61801E+00 -3.91141E-01 -7.01343E+00
  3.44957E-01 -5.72653E+00  2.69417E+00 -4.29995E+00  2.56648E+00  1.55580E-01 -7.26199E-03  1.44444E+00
 -6.07192E-01  2.47906E+00 -3.55404E+00  3.25055E+00 -4.59852E+00  3.72595E-01 -3.26262E+00 -3.40850E-01
 -3.44927E+00 -1.68112E+00 -5.93864E-01 -3.39676E+00  1.22814E+00 -1.70799E+00  1.30114E+00 -1.94268E+00
  3.12462E+00 -1.17492E+00  1.81524E+00  4.01685E-01  1.04419E+00 -1.13315E+00  1.45022E+00 -7.98536E-01
 -3.61207E-01 -1.64537E+00  6.05772E-01 -3.61384E+00  1.00223E+00 -2.74543E+00  3.03293E-01 -3.73729E+00
  1.90138E+00 -3.39780E+00  7.98043E-01 -1.56816E+00  9.58614E-02 -2.12524E+00  2.28300E-01 -5.56210E-01
 -2.19928E+00 -1.65898E-01 -2.17507E+00 -1.38694E+00 -2.49073E+00 -5.49158E-01 -3.34244E+00 -2.12557E+00
 -1.12630E+00 -2.80064E+00 -6.46446E-01 -1.88963E+00  7.49781E-01 -2.77966E+00  3.07613E+00 -8.91497E-01
  2.42985E+00  6.01872E-01  3.18229E+00  8.61259E-01  2.50871E+00  2.97371E+00  2.67873E-01  2.10363E+00
  4.30930E-01  1.03002E+00 -1.03150E+00  4.53735E-01 -1.05418E+00 -2.65615E+00  8.21061E-01 -3.32669E+00
  7.99253E-01 -3.89641E+00  2.78435E+00 -4.71392E+00  3.58359E+00 -2.48076E+00  2.40438E+00 -1.95568E+00
  2.72295E+00 -9.45736E-01  5.48075E-01  7.09376E-01 -1.00567E+00 -5.45200E-01 -9.44178E-01 -2.89343E-01
 -2.43665E+00 -7.79085E-01 -1.29051E+00 -2.20519E+00 -3.39355E-01 -9.27644E-01 -5.39981E-01 -1.11816E+00
  1.17823E+00 -4.61428E-01  5.53789E-01  1.31160E+00  1.82617E-01  5.39087E-01  9.43160E-01  1.18520E+00
 -2.25966E-01  8.73441E-01  9.01867E-01 -7.78907E-01  1.87087E+00 -1.38448E-01  1.80096E+00 -1.00036E+00
  3.66898E+00 -9.30623E-01  3.19616E+00  5.91599E-01  2.59402E+00  2.65511E-03  2.62250E+00  9.59385E-01
  2.79066E-01  9.64954E-01 -1.71919E-01 -6.82194E-01 -6.90768E-01 -5.56563E-01 -1.81738E+00 -2.23880E+00
 -3.43903E-01 -3.18325E+00 -2.97918E-01 -2.44971E+00  2.47840E-01 -3.18507E+00  1.76798E+00 -1.68338E+00
  9.07779E-01 -3.24764E-01  1.40973E+00 -1.10107E-01  1.24129E+00  1.91669E+00 -1.87442E-01  1.89430E+00
  4.49406E-01  1.89320E+00 -4.30502E-01  2.73976E+00 -7.32912E-01  1.39292E+00  2.82708E-01  1.60591E+00
 -5.79703E-01  1.40735E+00  2.38269E-01  2.15149E-02  7.16362E-01  5.42728E-01  7.62898E-02 -6.19698E-01
  1.45430E+00 -1.46588E+00  1.33442E+00 -1.09415E+00  1.63169E+00 -2.44324E+00  3.07666E+00 -1.86428E+00
  2.45905E+00 -1.17983E+00  3.07619E+00 -1.24786E+00  2.91062E+00  8.15545E-01  1.07233E+00  1.30946E+00
  6.73207E-01  1.77984E+00 -1.45936E+00  2.83713E+00 -3.17774E+00  1.37857E+00 -3.26619E+00  8.66771E-01
 -4.43728E+00 -2.11593E-01 -3.24901E+00 -2.34922E+00 -1.56601E+00 -2.20109E+00 -5.78281E-01 -2.80887E+00
  2.23273E+00 -2.38112E+00  3.16037E+00 -1.78965E-01  3.58176E+00  5.40523E-01  4.28007E+00  2.60873E+00
  2.45387E+00  3.98332E+00  1.60300E+00  3.51233E+00  4.67579E-01  4.03081E+00 -1.51903E+00  2.49086E+00
 -1.25542E+00  7.63615E-01 -1.82721E+00  8.76388E-02 -1.74991E+00 -2.10933E+00 -2.84859E-01 -2.52268E+00
 -4.81074E-01 -2.63077E+00  5.80679E-01 -3.40225E+00  1.29255E+00 -2.11259E+00  6.99491E-01 -1.92845E+00
  1.63246E+00 -1.45205E+00  1.09749E+00  1.96186E-01  5.65709E-01  1.77221E-01  9.73448E-01  1.42097E+00
 -4.61067E-01  2.39902E+00 -7.48675E-01  2.03680E+00 -1.20752E+00  2.97212E+00 -2.64303E+00  2.20585E+00
 -2.13172E+00  1.14538E+00 -2.41620E+00  8.92913E-01 -2.07139E+00 -1.04238E+00 -1.93372E-01 -1.52362E+00
  3.10293E-01 -1.65999E+00  1.98317E+00 -2.32166E+00  3.20875E+00 -8.75345E-01  2.77672E+00 -3.34984E-01
  3.27830E+00  2.90387E-01  2.03046E+00  1.69772E+00  5.36531E-01  1.04167E+00  1.00973E-01  1.03800E+00
 -1.62493E+00  5.79259E-01 -1.74203E+00 -1.08657E+00 -1.43893E+00 -1.06621E+00 -1.83549E+00 -1.83793E+00
 -5.36759E-01 -2.12102E+00 -4.21552E-01 -9.60107E-01 -4.71370E-01 -1.09888E+00  2.83285E-01 -1.05310E-01
 -6.56855E-01  6.98255E-01 -5.46680E-01  1.99646E-01 -3.61699E-01  9.48218E-01 -1.01945E+00  4.43264E-01
  3.30509E-02 -9.65578E-02  1.81402E-01  4.59768E-01  3.87759E-01 -3.39552E-01  1.54882E+00  3.46661E-02
  1.06657E+00  4.76511E-01  1.39565E+00 -1.20460E-01  1.51763E+00  6.48828E-01  4.63974E-01  2.61917E-01
  7.84159E-01 -2.77158E-01  1.11783E-01  9.65287E-02 -5.05158E-01 -1.00629E+00 -5.64461E-03 -1.09813E+00
 -8.23113E-01 -1.09313E+00 -5.79170E-01 -1.99600E+00 -2.38577E-01 -1.38322E+00 -8.45017E-01 -1.63110E+00
  8.85231E-03 -1.81980E+00 -1.01125E-02 -9.05182E-01  1.64434E-06 -1.25308E+00  1.04181E+00 -5.25812E-01
  6.68823E-01  3.88008E-01  1.06873E+00  3.97548E-01  1.27854E+00  1.74664E+00  2.13394E-01  2.01078E+00
  2.61622E-01  1.86966E+00 -6.64098E-01  2.24695E+00 -1.50914E+00  8.05855E-01 -9.99695E-01 -1.15639E-01
 -1.29574E+00 -1.08071E+00 -2.12077E-01 -2.82423E+00  1.27992E+00 -2.77380E+00  1.82211E+00 -2.93827E+00
  3.34284E+00 -2.57018E+00  3.43534E+00 -8.30459E-01  2.76507E+00 -3.02283E-01  2.49659E+00  8.02120E-01
  6.64431E-01  1.52109E+00 -2.99410E-01  7.58605E-01 -8.36628E-01  8.74502E-01 -1.86548E+00  4.25961E-02
 -1.21269E+00 -7.83394E-01 -1.08772E+00 -3.95871E-01 -9.98729E-01 -9.78149E-01 -2.94058E-02 -6.20257E-01
 -3.82441E-01 -1.58420E-01  2.36427E-02 -7.69768E-01  6.56683E-01 -3.06716E-01  5.43720E-01 -6.46797E-01
  1.80881E+00 -9.86742E-01  2.35685E+00 -1.31324E-01  2.60141E+00 -1.75019E-01  3.40087E+00  7.15047E-01
  2.53864E+00  1.72204E+00  1.96697E+00  1.54977E+00  1.26749E+00  2.11865E+00 -3.66823E-01  1.48827E+00
