 $NMID ID='gln', FMTDAT='(8E13.5)'
 TRAMP=1., VOLUME=1. $END
  3.16943E+01  2.77590E-02  1.25058E+01  2.61486E+01 -1.40045E+01  1.85789E+01 -1.81315E+01 -3.60288E+00
 -7.83056E-01 -1.66287E+01  1.82639E+01 -2.23345E+00  6.45629E+00  2.08466E+01 -1.81835E+01  1.45625E+01
 -2.13828E+01 -7.47860E+00 -6.48508E+00 -2.10712E+01  1.36550E+01 -1.52171E+01  1.45729E+01  5.22222E+00
 -1.55347E+00  8.48336E+00 -4.46797E+00 -2.28650E+00  2.05402E+00 -5.83459E+00  8.88193E+00 -2.76401E+00
  9.32483E+00  7.83087E+00 -1.78554E+00  1.10779E+01 -5.11691E+00  4.01168E+00 -3.91246E+00  3.96906E+00
 -8.18021E+00  1.87499E+00 -7.45201E+00 -3.95843E+00 -4.48960E+00 -7.59381E+00  3.20624E+00 -9.83906E+00
  9.16432E+00 -1.65132E-01 -9.60643E-01  6.29006E+00 -6.72393E+00 -3.66889E+00  1.69231E+00 -1.10064E+01
  1.38756E+01 -7.36008E+00  1.85443E+01  1.00769E+01 -2.97299E-01  2.38768E+01 -1.99824E+01  9.35837E+00
 -1.37145E+01 -1.10379E+01  4.01690E+00 -1.36215E+01  1.41737E+01  1.49784E+00  2.47954E-01  1.81384E+01
 -2.20596E+01  6.10652E+00 -1.58266E+01 -1.95938E+01  8.60627E+00 -2.36166E+01  2.40295E+01 -5.73853E+00
  1.54390E+01  1.75887E+01 -9.98498E+00  1.70631E+01 -1.43259E+01 -5.83076E+00  3.98819E+00 -1.32961E+01
  1.56006E+01 -3.59362E-01  9.28083E+00  1.69845E+01 -1.25613E+01  1.86398E+01 -2.17010E+01 -2.78554E+00
 -6.50430E+00 -1.60844E+01  6.52733E+00 -9.95965E+00  8.00502E+00  3.56736E-01 -4.08677E-01  5.76370E+00
 -6.97828E+00 -2.86617E+00  2.10714E+00 -9.79199E+00  9.12714E+00 -2.87946E+00  7.48263E+00  2.97846E+00
  4.51007E+00  6.77671E+00 -1.16038E+00  6.82832E+00 -1.83070E+00  3.90605E+00 -3.68698E+00  5.85752E+00
 -9.42805E+00  9.53490E-01 -4.90678E+00 -6.61550E+00  1.45341E+00 -4.75397E+00  2.56261E+00 -6.10286E-01
 -1.23992E+00  3.27011E+00 -8.58215E+00 -2.54794E+00 -1.12803E+00 -1.42795E+01  1.41480E+01 -8.96278E+00
  1.54406E+01  6.43901E+00  4.08324E+00  1.60436E+01 -1.17421E+01  1.07745E+01 -1.14902E+01 -7.39876E+00
  6.03480E+00 -9.97808E+00  1.10309E+01  5.45435E+00 -1.05793E+00  1.48502E+01 -1.67910E+01  8.28515E+00
 -1.79443E+01 -1.26074E+01  3.34082E+00 -2.15834E+01  1.73663E+01 -5.53065E+00  9.63716E+00  9.68227E+00
 -4.55015E+00  9.81829E+00 -1.03427E+01 -3.63738E+00  3.24004E+00 -1.34179E+01  1.62699E+01 -9.09459E-01
  8.42749E+00  1.41562E+01 -6.02096E+00  1.43626E+01 -1.43885E+01  3.55387E+00 -8.45952E+00 -9.33434E+00
  4.13584E+00 -6.95425E+00  3.07240E+00  2.50483E+00 -3.26090E+00  2.08972E+00 -4.97406E+00 -2.31003E+00
 -2.10408E+00 -7.73445E+00  6.18444E+00 -6.88852E+00  7.26535E+00  7.82504E-01  3.72827E+00  2.18046E+00
  4.06339E+00  3.37468E+00  9.02997E-01  5.90914E+00 -2.08165E+00  4.49441E+00 -4.22359E+00  3.33877E+00
 -5.38917E+00 -1.59156E+00  6.26848E-01 -3.37443E+00  1.20178E+00  2.87908E+00 -5.28186E+00  2.71889E+00
 -7.26675E+00 -3.39904E+00 -3.46069E+00 -1.02876E+01  8.20987E+00 -1.09382E+01  1.37102E+01  2.20041E+00
  3.25895E+00  1.06742E+01 -5.72570E+00  5.23833E+00 -5.20945E+00 -3.39018E+00  4.08306E+00 -6.78288E+00
  1.09901E+01  4.06087E+00  5.12381E-02  1.45245E+01 -1.30516E+01  7.21539E+00 -1.28156E+01 -6.03665E+00
 -2.24831E+00 -1.33674E+01  9.90088E+00 -6.74920E+00  6.44862E+00  6.42310E+00 -5.33277E+00  4.87995E+00
 -5.90047E+00 -4.97023E+00  1.98318E+00 -9.37854E+00  1.14278E+01 -4.24473E+00  1.01863E+01  8.79078E+00
 -2.52738E+00  1.15096E+01 -7.61092E+00  2.99578E+00 -4.58326E+00 -2.36904E+00  2.37835E-01 -3.22337E+00
  2.45151E+00  1.82247E+00 -3.63871E+00  4.06772E+00 -6.07852E+00 -2.19747E+00 -2.08033E+00 -5.14676E+00
  7.41858E-01 -5.32398E+00  4.43222E+00 -3.74688E+00  4.32047E+00  3.96495E-01  2.82900E+00  5.69213E-01
  3.82018E+00  2.54239E+00  7.19213E-02  4.84798E+00 -2.23417E+00  1.67070E+00 -7.44987E-01  5.82440E-01
 -3.70762E-01  6.68370E-01  5.30615E-01  2.35467E+00 -3.97294E+00  4.65445E+00 -8.39607E+00 -1.76461E+00
 -3.12987E+00 -8.07737E+00  3.51089E+00 -6.95108E+00  7.27113E+00 -1.72566E+00  3.93037E+00  5.27857E+00
 -4.00105E+00  2.93777E+00 -1.91939E+00 -4.61591E+00  5.06485E+00 -3.65086E+00  7.35326E+00  2.53555E+00
  2.99565E+00  9.49224E+00 -7.56766E+00  8.19338E+00 -9.53161E+00 -2.73341E+00 -1.51646E+00 -6.82944E+00
  3.33477E+00 -3.01655E+00  2.88530E+00  2.26181E+00 -3.50973E+00  3.73012E+00 -6.27429E+00 -4.04469E+00
  1.43349E+00 -8.28251E+00  7.02802E+00 -3.35393E+00  6.86776E+00  2.54168E+00  2.03362E+00  6.73555E+00
 -3.96788E+00  3.48907E+00 -1.74955E+00 -1.61290E+00  1.39222E+00  2.16945E-01  3.30543E-01  2.07106E+00
 -1.26121E+00  2.99219E+00 -4.76942E+00  1.50522E+00 -3.97064E+00 -3.39473E+00 -1.88031E-01 -3.56735E+00
  3.70777E-01 -2.82237E+00  2.43662E+00 -2.73372E+00  2.94563E+00  3.84371E-02  1.64837E+00  4.10813E-01
  2.03155E+00  1.24707E+00 -6.20285E-02  1.92551E+00  2.24632E-01 -2.91518E-01  2.24626E+00  1.61213E+00
 -2.33518E-01  3.77644E+00 -2.60005E+00  2.94253E+00 -5.02421E+00  1.04620E+00 -4.41160E+00 -4.22533E+00
  1.56860E+00 -4.96780E+00  2.95021E+00 -4.75144E-01  7.58260E-01  9.78085E-01 -1.18618E+00  5.26556E-01
 -1.68046E+00 -2.96888E+00  3.72494E+00 -4.28859E+00  6.22535E+00  1.72905E+00  1.99256E+00  5.39767E+00
 -2.10800E+00  4.73883E+00 -4.89712E+00  1.09079E+00 -1.95514E+00 -3.38343E+00  2.31516E+00 -7.85103E-01
 -5.63686E-02  2.53550E+00 -2.78661E+00  1.20752E+00 -3.81594E+00 -1.38636E+00 -1.56592E+00 -5.28193E+00
  4.03142E+00 -4.00523E+00  4.00735E+00  1.01739E+00  1.35098E+00  1.87485E+00  1.17464E-01  1.69788E+00
 -8.75935E-01  8.85876E-02  1.51245E+00 -6.86426E-01  1.69123E+00  2.47244E+00 -1.24886E+00  2.60171E+00
 -1.88002E+00  1.35362E+00 -3.02688E+00  3.18999E-01 -2.10570E+00 -2.36063E+00  2.15637E-01 -1.81715E+00
 -1.68141E-01 -1.31742E+00  1.13432E+00 -1.77883E+00  1.42136E+00  8.54101E-02  2.46343E-01 -3.58672E-01
  1.50217E+00 -5.34802E-01  1.20748E+00  6.55815E-01  1.39813E+00  4.35567E-01  1.54443E+00  2.59055E+00
 -1.72322E+00  3.00020E+00 -2.51067E+00  3.81039E-01 -1.87769E+00 -5.23073E-01 -1.06807E+00 -1.85520E+00
  1.10551E+00 -8.96637E-01 -4.64206E-01  9.76940E-01 -1.71098E+00 -1.15928E+00  5.29047E-02 -2.16552E+00
  1.20557E+00 -2.06873E+00  3.33291E+00 -8.51543E-01  2.40943E+00  2.70107E+00 -9.21236E-01  2.23908E+00
 -8.00155E-01  4.12165E-01 -5.61949E-01  2.28929E-01  2.71974E-01 -2.45869E-01  5.77449E-01  1.68407E+00
 -2.32123E+00  1.64518E+00 -2.36524E+00 -1.21803E+00 -8.68398E-01 -1.75299E+00  1.45118E-01 -2.26162E+00
  2.05673E+00 -1.04265E+00  7.95756E-01  8.99219E-01 -1.17478E-01 -3.98942E-01  1.05321E+00 -2.60766E-01
  6.52072E-01  2.60797E-01  1.32884E+00  3.53986E-01  6.32683E-01  2.17785E+00 -1.44331E+00  1.32291E+00
 -8.90928E-01  1.96546E-01 -1.29395E+00  3.14835E-01 -1.06275E+00 -1.09894E+00  1.83660E-01 -5.50178E-01
 -6.98331E-01 -3.44950E-01  8.37710E-02 -1.34661E+00  6.44380E-01 -3.44851E-01  1.59136E-01 -7.78896E-01
  1.55753E+00 -5.87426E-01  1.03577E+00  9.73794E-01  3.69700E-01  5.31042E-01  5.53820E-01  1.23938E+00
 -1.02592E+00  1.14198E+00 -6.01534E-01 -2.35584E-01 -2.12133E-01  5.34866E-01 -1.08426E+00 -1.85353E-02
 -2.73205E-01 -4.32580E-01 -8.28187E-01 -3.78796E-02 -6.23595E-01 -1.50499E+00  9.97423E-01 -9.70262E-01
  4.97084E-01 -1.63224E-01  9.33160E-01 -4.13552E-01  8.32240E-01  8.15127E-01 -2.38745E-01  2.74802E-01
  7.35148E-01  5.21807E-02  1.53170E-01  1.16416E+00 -5.18448E-01  3.90779E-01 -1.73652E-01  6.53448E-01
 -1.31710E+00  3.67557E-01 -6.09322E-01 -9.67082E-01  5.45586E-02 -1.79625E-01 -5.41949E-01 -5.56586E-01
  4.67715E-01 -7.67952E-01  1.45474E-01  3.51758E-02  1.51152E-01 -8.16804E-01  1.21915E+00 -5.25489E-02
  2.62152E-01  6.62158E-01  3.63636E-01  1.10411E-01  2.60558E-01  9.76710E-01 -7.54591E-01  3.46554E-01
  1.00950E-01 -6.82674E-02 -3.82697E-01  7.07718E-01 -8.11839E-01 -2.84632E-01 -7.32471E-02 -1.67000E-01
 -7.44675E-01 -2.29828E-01  8.40049E-02 -1.14644E+00  7.12775E-01 -6.55179E-02 -3.95027E-02 -1.33970E-01
  6.59334E-01 -2.53994E-01  1.86310E-01  5.15895E-01 -1.97811E-03 -3.03115E-01  8.48441E-01  3.24636E-01
 -2.16248E-01  8.95729E-01 -2.79500E-01  1.03082E-01 -2.80723E-01  5.58226E-01 -9.57590E-01 -2.38966E-01
  1.88155E-01 -6.53898E-01 -5.86233E-04  2.86051E-01 -3.86769E-01 -4.07113E-01  2.84403E-01 -1.97261E-01
 -3.33216E-01 -1.32673E-01  4.03130E-01 -8.53887E-01  9.04914E-01  3.23839E-01 -5.15791E-02  3.79605E-01
  3.30955E-01  1.56021E-01 -2.34062E-01  6.79097E-01 -4.53966E-01 -3.08426E-01  4.47730E-01  5.58832E-02
 -3.68427E-01  5.06208E-01 -2.72234E-01 -2.54175E-01 -1.10341E-01  2.39319E-01 -7.03395E-01 -3.80428E-01
  3.80036E-01 -7.46589E-01  3.07987E-01  1.97704E-01 -5.80084E-03 -2.74444E-01  5.54394E-01  1.40132E-01
 -2.93563E-01  3.66294E-01  5.76229E-02 -4.51557E-01  4.74186E-01  3.31574E-01 -2.61708E-01  2.19187E-01
  2.50728E-01  3.21489E-02 -2.87510E-01  6.42427E-01 -6.60246E-01 -3.46165E-01  2.34603E-01 -2.78928E-01
 -2.13627E-01  5.39061E-02  1.45008E-01 -4.57385E-01  3.20269E-01  3.54294E-01 -5.15711E-01 -1.73496E-02
  2.50027E-01 -4.99709E-01  2.22325E-01  2.09073E-01  3.65432E-02 -2.19541E-01  5.65932E-01  2.90971E-01
 -4.05649E-01  5.86760E-01 -2.80852E-01 -3.52086E-01  1.73313E-01  1.12038E-01 -3.05726E-01 -8.08017E-02
  3.51875E-01 -1.94183E-01 -8.61256E-02  5.39470E-01 -5.24888E-01 -2.92805E-01  2.72556E-01 -2.68463E-01
 -1.13843E-01  4.98466E-02  2.31543E-01 -3.97714E-01  4.09569E-01  4.25625E-01 -4.55266E-01  1.65616E-01
  1.36471E-01 -3.14861E-01  5.14848E-02  2.70532E-01 -1.50175E-01 -2.41142E-01  4.36192E-01  1.22242E-01
 -3.49149E-01  4.28231E-01 -2.10907E-01 -3.81692E-01  2.03433E-01  9.20037E-02 -2.91958E-01 -8.48654E-02
  3.39124E-01 -2.63770E-01  3.81220E-02  4.44517E-01 -3.58021E-01 -2.18613E-01  3.22826E-01 -1.22058E-01
 -1.49498E-01  1.98759E-01  7.87774E-02 -3.18961E-01  2.97614E-01  3.43164E-01 -4.43218E-01  1.05059E-01
  1.32689E-01 -3.26683E-01  5.85877E-02  2.57614E-01 -1.81857E-01 -2.21975E-01  3.76678E-01  5.27669E-02
 -3.00426E-01  3.38227E-01 -1.44223E-01 -4.03041E-01  2.86837E-01  8.36740E-02 -2.08807E-01  4.16515E-03
