 $NMID ID='glu', FMTDAT='(8E13.5)'
 TRAMP=1., VOLUME=1. $END
  3.17063E+01  4.53250E-02  1.17105E+01  2.64965E+01 -1.51914E+01  1.74110E+01 -1.71822E+01 -5.79712E+00
  2.28217E+00 -1.64641E+01  1.93648E+01  1.34480E+00  2.95513E+00  2.35706E+01 -2.26097E+01  1.19944E+01
 -2.06960E+01 -1.31490E+01 -6.18910E-01 -2.28806E+01  1.78559E+01 -1.04541E+01  1.19111E+01  1.10018E+01
 -7.80704E+00  8.29873E+00 -6.63582E+00 -8.03977E+00  6.53049E+00 -1.00328E+01  1.46344E+01 -3.39369E-01
  9.72312E+00  1.42302E+01 -7.31915E+00  1.46173E+01 -1.11044E+01  1.06370E+00 -4.63422E+00 -2.72525E+00
 -2.86478E+00 -2.34745E+00 -9.90823E-01 -1.52737E+00 -3.50238E+00 -4.95632E-01 -3.17720E+00 -5.54073E+00
  1.83515E+00 -4.66737E+00  2.91825E-01 -3.53673E+00  4.23214E+00 -7.16211E+00  1.07260E+01 -1.41806E+00
  8.62328E+00  6.37289E+00  2.66328E+00  1.12829E+01 -8.31211E+00  9.09866E+00 -8.98352E+00 -4.23941E+00
  3.61700E+00 -5.43078E+00  4.78525E+00  5.60700E+00 -4.87007E+00  9.47319E+00 -1.52421E+01  2.16802E+00
 -1.26357E+01 -1.56653E+01  8.92753E+00 -1.94653E+01  1.83565E+01 -4.01677E-01  6.35951E+00  1.20269E+01
 -7.15165E+00  7.70359E+00 -8.48291E+00 -7.25438E+00  9.15913E+00 -1.26302E+01  1.87766E+01  6.74584E+00
  2.10952E+00  2.12072E+01 -1.60272E+01  1.28900E+01 -1.88497E+01 -5.76811E+00 -2.76809E+00 -1.76515E+01
  1.31271E+01 -5.24786E+00  3.93362E+00  1.05225E+01 -1.06526E+01  4.75865E+00 -1.05108E+01 -9.42726E+00
  3.12015E+00 -1.74866E+01  1.92092E+01 -6.62989E+00  1.38036E+01  1.32073E+01 -3.61026E+00  1.40441E+01
 -9.17779E+00  3.09417E+00 -4.46092E+00 -5.20712E+00  5.86570E+00 -3.80292E+00  5.64491E+00  8.69048E+00
 -7.88611E+00  1.01726E+01 -1.28754E+01 -8.98962E-01 -8.38705E+00 -9.72282E+00  2.02655E+00 -1.32957E+01
  1.09509E+01 -4.49344E+00  5.54370E+00  4.84010E+00 -7.89127E-01  2.63163E+00 -1.16706E+00 -8.68790E-01
  1.79403E+00 -4.31182E+00  9.27571E+00 -6.90153E-01  6.50527E+00  1.01402E+01 -4.23409E+00  1.09654E+01
 -9.81857E+00  4.78122E+00 -1.04084E+01 -3.98057E+00 -1.32800E+00 -9.66557E+00  5.57651E+00 -2.15272E+00
 -2.48113E-02  3.36100E+00 -4.65931E+00 -1.24075E-01 -4.65104E+00 -6.07035E+00  3.40344E+00 -1.13066E+01
  1.38288E+01 -3.22969E+00  9.18115E+00  9.34795E+00 -1.14278E+00  1.01297E+01 -6.64726E+00  4.67693E+00
 -5.22738E+00 -3.40346E+00  3.88223E+00 -3.22702E+00  3.37719E+00  6.44638E+00 -6.14235E+00  6.89620E+00
 -1.01929E+01 -3.45723E-01 -7.90257E+00 -8.98708E+00  3.20754E+00 -1.25768E+01  1.06006E+01 -2.77641E+00
  4.79312E+00  4.76051E+00 -5.87564E-01  3.22368E+00 -2.25371E+00 -6.35040E-01  2.25078E+00 -4.87010E+00
  9.17027E+00  1.03807E+00  3.96070E+00  1.01483E+01 -5.12204E+00  9.04758E+00 -9.84182E+00  3.06766E+00
 -8.60970E+00 -5.97433E+00  1.34379E+00 -8.38079E+00  4.74264E+00 -2.62876E-01 -7.29069E-01  2.62050E+00
 -4.12249E+00 -4.19391E-01 -3.82033E+00 -6.48336E+00  5.39108E+00 -9.88284E+00  1.26807E+01 -8.00709E-02
  6.32691E+00  9.35450E+00 -2.34934E+00  8.99841E+00 -7.46889E+00  2.97186E+00 -3.66956E+00 -5.10314E+00
  5.15501E+00 -1.86791E+00  2.00043E+00  6.94740E+00 -6.62699E+00  5.75639E+00 -1.01888E+01 -1.68831E+00
 -5.75587E+00 -1.09107E+01  6.79538E+00 -1.06656E+01  1.00320E+01  1.08097E+00  2.17935E+00  5.82585E+00
 -2.78347E+00  2.31758E+00 -2.30064E+00 -3.41162E+00  5.54012E+00 -4.88728E+00  9.08269E+00  4.94425E+00
 -1.08770E-01  1.09179E+01 -7.76581E+00  6.00916E+00 -9.01939E+00 -1.44936E+00 -3.34123E+00 -7.55164E+00
  4.33114E+00 -3.71737E+00  1.37088E+00  2.88310E+00 -3.63647E+00  5.10892E-01 -3.20643E+00 -3.72895E+00
  6.26310E-01 -7.13413E+00  8.08462E+00 -4.57438E+00  7.92028E+00  4.46405E+00  1.03727E+00  6.69450E+00
 -2.36139E+00  4.28679E+00 -3.88208E+00  8.93719E-01 -5.13489E-01 -2.17111E+00  2.20249E+00  1.85289E+00
 -2.29505E+00  4.13188E+00 -5.09286E+00  1.00900E+00 -5.71288E+00 -2.61050E+00 -2.30829E+00 -7.67805E+00
  5.21068E+00 -5.91608E+00  5.56173E+00  6.48596E-01  2.26257E+00  2.45293E+00 -3.08485E-01  2.23544E+00
 -1.38253E+00 -1.33053E+00  3.83663E+00 -2.38856E+00  5.20316E+00  4.10453E+00 -4.37546E-01  6.96586E+00
 -5.21703E+00  4.90215E+00 -7.91934E+00 -7.85937E-01 -2.89489E+00 -6.84485E+00  3.63809E+00 -3.34986E+00
  1.61823E+00  1.58585E+00 -1.75321E+00  1.00143E+00 -3.34360E+00 -2.13963E+00  3.05552E-01 -6.87131E+00
  7.94372E+00 -3.58105E+00  6.70568E+00  4.85146E+00  3.74655E-01  6.60461E+00 -3.85210E+00  4.01449E+00
 -4.32172E+00 -1.43992E+00  1.50856E+00 -2.92537E+00  2.64077E+00  3.01568E+00 -2.91669E+00  4.23344E+00
 -5.67856E+00  3.97257E-01 -5.12607E+00 -4.60570E+00  1.11055E+00 -7.70633E+00  6.34519E+00 -2.21462E+00
  3.04194E+00  2.71611E+00 -9.66647E-02  1.77820E+00 -9.97994E-01 -2.12967E-02  1.00293E+00 -2.46224E+00
  5.01525E+00  5.35994E-01  1.95515E+00  5.70982E+00 -2.98832E+00  4.46405E+00 -4.66306E+00  1.50365E+00
 -4.43528E+00 -2.48949E+00  1.84044E-01 -4.04493E+00  1.71160E+00 -2.18379E-01 -8.76711E-01  2.75997E-01
 -1.00539E+00 -1.15769E+00 -8.75175E-01 -2.44698E+00  2.26561E+00 -4.01876E+00  5.43167E+00 -6.99125E-02
  2.69957E+00  3.56549E+00  1.66000E-01  3.43499E+00 -2.11506E+00  2.76547E+00 -2.61424E+00 -6.47674E-01
  7.51223E-01 -9.06417E-01  1.33358E-01  1.95838E+00 -2.13110E+00  1.34518E+00 -3.12723E+00  6.42446E-02
 -3.45607E+00 -3.27849E+00  1.25238E+00 -5.36051E+00  4.26054E+00 -1.30586E+00  2.41439E+00  1.33224E+00
  7.92246E-01  1.87184E+00 -1.29395E+00  6.94069E-01  5.43641E-01 -2.09338E+00  3.71414E+00  7.04664E-01
  1.09600E+00  4.13167E+00 -2.10184E+00  3.49894E+00 -4.41832E+00  1.31131E+00 -3.64258E+00 -3.24509E+00
  1.34448E+00 -3.44863E+00  1.68763E+00  4.12753E-01 -6.03571E-01  6.15178E-01 -1.40085E+00 -5.09533E-01
 -1.03694E+00 -2.98591E+00  3.32109E+00 -3.41187E+00  4.67967E+00  1.57942E+00  1.02105E+00  3.62463E+00
 -1.11933E+00  2.56799E+00 -2.41921E+00  6.88198E-01 -5.35594E-01 -1.65797E+00  1.65576E+00  7.29756E-01
 -1.13861E+00  2.43923E+00 -2.69804E+00  2.81446E-01 -2.49918E+00 -1.38795E+00 -9.08689E-01 -3.59072E+00
  2.71516E+00 -2.42911E+00  2.04117E+00  8.60678E-01  3.32188E-01  4.53274E-01  5.08488E-01  2.93080E-01
  7.57777E-02 -1.94021E-01  1.74351E+00 -3.51601E-01  1.51491E+00  2.35382E+00 -1.14692E+00  2.19744E+00
 -1.44110E+00  9.57878E-01 -2.22247E+00  2.68559E-01 -1.40713E+00 -1.83276E+00  5.69118E-01 -9.99475E-01
 -3.30760E-01 -2.01677E-01  1.41545E-02 -1.00630E+00  1.63432E-01 -3.50558E-01 -5.80628E-02 -1.42665E+00
  2.14789E+00 -1.15312E+00  1.85322E+00  1.18907E+00  6.71621E-01  1.31287E+00  6.21255E-02  1.91201E+00
 -1.78040E+00  9.76497E-01 -6.19566E-01 -8.88864E-01  3.61998E-01  4.43340E-01 -8.46363E-01  5.71187E-01
 -8.43395E-01  1.30553E-01 -1.77430E+00 -3.78625E-01 -7.31219E-01 -2.63343E+00  1.95282E+00 -1.55097E+00
  1.35274E+00  3.60521E-01  8.46720E-01  4.68647E-01  3.20918E-02  9.97646E-01 -5.62354E-01 -4.87394E-01
  1.49124E+00 -4.45441E-01  9.26956E-01  1.78376E+00 -7.51838E-01  1.42040E+00 -1.24032E+00  9.68587E-01
 -2.09269E+00 -4.47858E-01 -1.98209E-01 -1.91557E+00  9.07127E-01 -1.16417E-01 -4.02220E-01  1.22486E-01
 -1.18847E-01 -4.83693E-01 -3.49058E-01 -5.15698E-01  5.71635E-01 -1.57600E+00  2.13476E+00  5.56085E-02
  5.52241E-01  1.47405E+00 -1.12384E-01  6.83842E-01 -3.65587E-01  8.67477E-01 -8.48543E-01 -1.70795E-01
  5.11755E-01 -1.84204E-01 -2.77767E-01  1.09553E+00 -1.18640E+00 -8.36287E-02 -4.57944E-01 -4.13851E-01
 -7.52734E-01 -7.32420E-01  5.19496E-01 -1.39932E+00  1.04250E+00  1.60933E-01 -7.67299E-02  8.73900E-02
  5.87680E-01 -2.38700E-01  2.19539E-01  4.73561E-01  1.52386E-01 -2.51835E-01  8.84813E-01  6.00753E-01
 -4.81777E-01  1.06370E+00 -4.98306E-01 -1.20023E-02 -3.28344E-01  4.14406E-01 -9.25551E-01 -3.35736E-01
  2.21781E-01 -6.41049E-01 -1.16345E-01  2.59249E-01 -4.01606E-01 -6.40738E-01  5.13450E-01 -3.35286E-01
 -1.02889E-01 -5.93681E-02  5.27929E-01 -6.44274E-01  7.98490E-01  5.49474E-01 -2.40944E-01  3.57012E-01
  3.47815E-01  5.66022E-02 -1.69680E-01  7.22555E-01 -4.62657E-01 -2.02589E-01  3.01600E-01  1.74290E-01
 -6.28556E-01  4.06569E-01 -3.05953E-01 -5.52936E-01  7.92578E-02  7.13063E-02 -4.85635E-01 -3.76032E-01
  5.15437E-01 -5.70002E-01  1.98340E-01  3.64037E-01 -1.32457E-01 -3.49897E-01  6.18488E-01  3.93046E-02
 -1.65633E-01  3.82249E-01  1.59729E-01 -2.85581E-01  3.32774E-01  5.77120E-01 -5.82351E-01  1.91209E-01
  1.26516E-01 -2.34134E-01 -1.77359E-01  4.09128E-01 -4.04037E-01 -4.00200E-01  3.80075E-01 -6.31599E-02
 -3.77589E-01  2.11613E-01 -3.82246E-03 -5.81019E-01  3.88943E-01  1.79941E-01 -2.87087E-01 -5.54544E-02
  4.39519E-01 -2.50490E-01  4.37255E-02  5.28782E-01 -3.14512E-01 -2.43178E-01  4.22300E-01  2.91238E-02
 -2.94931E-01  3.41936E-01 -2.26464E-02 -3.62062E-01  2.25845E-01  3.38145E-01 -5.07051E-01 -2.94829E-02
  2.70592E-01 -3.82074E-01  5.27261E-02  3.64067E-01 -2.43218E-01 -2.76221E-01  4.20209E-01  3.80378E-02
 -3.20045E-01  3.12957E-01 -2.72074E-02 -4.33590E-01  3.12741E-01  2.69502E-01 -3.99380E-01  3.48708E-02
  2.39688E-01 -2.72720E-01 -4.58285E-02  3.70560E-01 -3.05254E-01 -3.59853E-01  4.63759E-01 -8.56709E-02
 -1.79142E-01  2.89245E-01  4.24337E-02 -3.49979E-01  3.12723E-01  3.13708E-01 -3.73173E-01  5.44075E-02
  2.89732E-01 -2.29025E-01  5.77494E-03  4.90908E-01 -3.84503E-01 -1.70975E-01  2.43787E-01 -1.66591E-02
 -3.63636E-01  2.05018E-01 -5.77447E-02 -4.89780E-01  2.91439E-01  1.68936E-01 -3.72712E-01 -5.51382E-02
  2.86899E-01 -3.97104E-01  1.55224E-01  2.71714E-01 -8.38209E-02 -2.45452E-01  5.32395E-01  1.10293E-01
 -2.13030E-01  4.75785E-01 -1.02698E-01 -2.35626E-01  2.07329E-01  2.98470E-01 -4.15025E-01  9.84729E-02
  1.27559E-01 -1.78880E-01 -1.85862E-01  3.96559E-01 -5.12854E-01 -3.78172E-01  2.82787E-01 -3.23321E-01
 -9.27145E-02  2.98938E-02  1.77654E-01 -4.31416E-01  4.12532E-01  2.62404E-01 -2.87542E-01  4.82214E-02
  3.42985E-01 -3.06948E-01  2.58746E-01  4.14797E-01 -1.05509E-01  4.84975E-02  2.74805E-01  3.17761E-01
 -5.19416E-01  4.83924E-01 -3.69933E-01 -3.93466E-01  1.10418E-01  1.54409E-02 -3.50016E-01 -1.01718E-01
