 $NMID ID='gpc', FMTDAT='(8E13.5)'
 TRAMP=1., VOLUME=1. $END
  1.09639E+02 -1.06394E+00  8.81740E+01  5.74498E+01  4.18320E+01  8.86725E+01 -1.27215E+01  9.05758E+01
 -5.62410E+01  5.68800E+01 -6.36632E+01  9.46322E+00 -4.53754E+01 -2.52348E+01 -1.14274E+01 -4.15308E+01
  2.22871E+01 -2.72071E+01  3.01863E+01  2.23169E+00  1.89019E+01  2.44036E+01 -5.72003E+00  3.45485E+01
 -3.11203E+01  1.92971E+01 -3.31857E+01 -8.32064E+00 -1.80213E+01 -2.76383E+01  9.16414E+00 -3.42355E+01
  3.59863E+01 -1.45432E+01  3.75771E+01  1.88211E+01  1.84803E+01  4.42912E+01 -1.65628E+01  5.51340E+01
 -5.40802E+01  3.53384E+01 -6.63804E+01 -4.30176E+00 -5.39999E+01 -4.16591E+01 -1.89028E+01 -6.68537E+01
  2.59623E+01 -5.96316E+01  5.05945E+01 -2.66476E+01  5.08117E+01  1.15832E+01  2.41410E+01  4.34342E+01
 -1.89983E+01  4.46304E+01 -4.79008E+01  1.67818E+01 -5.42918E+01 -2.27971E+01 -3.06691E+01 -6.22258E+01
  1.65494E+01 -7.38646E+01  5.76141E+01 -5.36767E+01  8.11342E+01 -1.40112E+01  7.42298E+01  3.53084E+01
  3.74831E+01  6.52134E+01 -3.21768E+00  6.67485E+01 -3.65049E+01  4.63172E+01 -4.64845E+01  9.09823E+00
 -2.87375E+01 -1.79850E+01 -4.29075E+00 -2.46813E+01  1.81101E+01 -1.41902E+01  2.30863E+01  1.17263E+01
  4.84558E+00  2.87642E+01 -1.75030E+01  2.73443E+01 -3.60927E+01  1.03923E+01 -3.57274E+01 -2.04654E+01
 -1.02763E+01 -4.05126E+01  2.09067E+01 -3.85511E+01  4.79265E+01 -1.60489E+01  5.25799E+01  2.53590E+01
  2.55118E+01  5.89849E+01 -1.56604E+01  6.92429E+01 -5.95492E+01  5.26154E+01 -8.37310E+01  7.21745E+00
 -7.27807E+01 -4.09575E+01 -3.86535E+01 -7.29764E+01  9.83942E+00 -7.93318E+01  4.92014E+01 -5.17312E+01
  5.93198E+01 -1.13983E+01  4.57418E+01  2.36046E+01  1.20684E+01  4.10391E+01 -2.08497E+01  2.77298E+01
 -3.19814E+01 -2.98419E-01 -2.33291E+01 -2.78758E+01  5.33105E+00 -4.28798E+01  3.59241E+01 -3.00439E+01
  4.77644E+01 -2.25460E+00  4.10658E+01  2.72148E+01  1.34284E+01  4.63299E+01 -1.86866E+01  3.83479E+01
 -3.43738E+01  1.38715E+01 -3.19908E+01 -1.49400E+01 -7.19764E+00 -3.55634E+01  2.47585E+01 -2.94439E+01
  4.22857E+01 -4.79269E+00  4.13961E+01  2.72270E+01  1.53839E+01  5.32195E+01 -2.19248E+01  5.21713E+01
 -4.80854E+01  2.91178E+01 -5.61251E+01 -6.46439E+00 -3.59276E+01 -4.05893E+01  1.25010E+00 -4.94283E+01
  3.29480E+01 -3.38336E+01  4.93405E+01 -1.93796E-01  3.61709E+01  3.82070E+01  7.08784E-01  5.53842E+01
 -3.61939E+01  4.76826E+01 -6.30443E+01  1.71003E+01 -6.16477E+01 -2.56421E+01 -3.43264E+01 -5.41621E+01
  1.58134E+00 -6.12750E+01  3.51690E+01 -4.43563E+01  4.61658E+01 -1.01116E+01  3.28242E+01  1.69341E+01
  8.59598E+00  2.84846E+01 -1.76726E+01  1.91871E+01 -2.57575E+01 -7.31016E+00 -1.20472E+01 -2.84505E+01
  1.20943E+01 -3.58112E+01  3.87532E+01 -2.28203E+01  4.73364E+01  8.26394E+00  3.25783E+01  3.52891E+01
  4.43952E+00  4.83992E+01 -2.90371E+01  3.88345E+01 -4.55419E+01  6.94252E+00 -3.66698E+01 -2.54819E+01
 -9.59278E+00 -4.64501E+01  2.84771E+01 -4.36824E+01  5.37134E+01 -1.39022E+01  5.38352E+01  2.31173E+01
  3.16496E+01  5.43420E+01 -8.47316E+00  6.40599E+01 -4.30078E+01  4.43315E+01 -5.68312E+01  1.09890E+01
 -4.82364E+01 -2.41229E+01 -1.74421E+01 -4.37041E+01  1.43963E+01 -3.60464E+01  3.14969E+01 -1.27567E+01
  2.92882E+01  1.68185E+01  4.54644E+00  3.56087E+01 -2.42174E+01  2.98928E+01 -4.15528E+01  8.25344E+00
 -4.12610E+01 -2.19944E+01 -1.77364E+01 -4.41960E+01  1.25110E+01 -4.31569E+01  3.41575E+01 -2.50243E+01
  3.94555E+01  4.49603E+00  2.05998E+01  2.89401E+01 -7.73364E+00  3.15494E+01 -3.01986E+01  1.60073E+01
 -3.73189E+01 -1.35879E+01 -1.88545E+01 -4.08395E+01  1.25485E+01 -4.71100E+01  4.15391E+01 -3.30852E+01
  5.65556E+01 -6.51541E-01  4.41501E+01  3.42707E+01  1.38878E+01  5.11069E+01 -1.98666E+01  4.68529E+01
 -4.39999E+01  1.99536E+01 -4.16378E+01 -1.55730E+01 -1.82724E+01 -3.83470E+01  1.42073E+01 -4.20946E+01
  4.26070E+01 -2.13223E+01  4.75474E+01  1.30868E+01  3.04807E+01  4.04713E+01 -4.17400E-02  5.25254E+01
 -3.21658E+01  4.03009E+01 -4.54385E+01  1.11130E+01 -3.82082E+01 -1.62792E+01 -1.57962E+01 -3.30375E+01
  1.19805E+01 -2.80716E+01  2.48397E+01 -5.87758E+00  1.94113E+01  1.66514E+01 -1.04665E+00  3.07124E+01
 -2.80119E+01  2.39976E+01 -4.10785E+01 -7.78900E-01 -3.52310E+01 -2.76135E+01 -1.19934E+01 -4.68836E+01
  2.08490E+01 -4.43441E+01  4.19820E+01 -2.03805E+01  4.37432E+01  1.01524E+01  2.48069E+01  3.66410E+01
 -8.77661E+00  4.21911E+01 -3.53592E+01  2.36989E+01 -4.45336E+01 -6.49476E+00 -3.12872E+01 -3.79235E+01
  1.42669E+00 -5.15595E+01  3.30780E+01 -4.04609E+01  5.15419E+01 -1.33199E+01  4.83179E+01  2.11055E+01
  2.25334E+01  4.30752E+01 -7.81753E+00  4.26003E+01 -3.05209E+01  2.45969E+01 -3.48637E+01 -4.85993E+00
 -1.66892E+01 -2.67736E+01  8.84011E+00 -2.95478E+01  3.03423E+01 -1.53033E+01  3.60495E+01  1.22493E+01
  1.95074E+01  3.51389E+01 -6.37967E+00  4.07815E+01 -3.09381E+01  2.91462E+01 -4.15108E+01  2.02477E+00
 -2.95998E+01 -2.34436E+01 -6.03779E+00 -3.36727E+01  1.91325E+01 -2.65134E+01  3.23229E+01 -1.84105E+00
  2.29229E+01  2.40341E+01 -4.17960E-01  3.64463E+01 -2.83486E+01  3.09012E+01 -4.62105E+01  5.02869E+00
 -4.08509E+01 -2.59549E+01 -1.80697E+01 -4.62859E+01  1.41658E+01 -4.86553E+01  4.05245E+01 -2.75284E+01
  4.51431E+01  4.10268E+00  3.01468E+01  3.03425E+01  8.22756E-01  4.14702E+01 -2.81944E+01  2.84207E+01
 -3.93005E+01  8.87605E-01 -3.11740E+01 -2.65336E+01 -5.80889E+00 -4.30041E+01  2.40555E+01 -3.66283E+01
  4.04210E+01 -1.36978E+01  3.95192E+01  1.33305E+01  2.03815E+01  3.37140E+01 -6.54863E+00  3.38745E+01
 -2.38115E+01  1.74047E+01 -2.62998E+01 -5.28375E+00 -1.10139E+01 -2.40025E+01  1.33482E+01 -2.42652E+01
  2.97254E+01 -7.81809E+00  3.18541E+01  1.62359E+01  1.50697E+01  3.76824E+01 -1.31928E+01  4.06950E+01
 -3.56922E+01  2.48602E+01 -4.42937E+01 -2.17508E+00 -3.18463E+01 -3.00467E+01 -3.72910E+00 -4.10823E+01
  2.31646E+01 -3.18191E+01  3.88732E+01 -7.32295E+00  3.31922E+01  2.29441E+01  8.37292E+00  4.00772E+01
 -2.03140E+01  3.74965E+01 -4.21080E+01  1.68968E+01 -4.41527E+01 -1.44050E+01 -2.51781E+01 -3.75419E+01
  2.23354E+00 -4.36326E+01  2.78809E+01 -3.10633E+01  3.74089E+01 -4.28269E+00  2.65868E+01  1.91110E+01
  5.10879E+00  2.92496E+01 -1.82232E+01  2.21695E+01 -2.87003E+01 -1.93515E-01 -2.01930E+01 -2.17718E+01
 -2.00729E-01 -3.23865E+01  2.36401E+01 -2.65161E+01  3.64024E+01 -4.24566E+00  3.03806E+01  1.94703E+01
  1.12173E+01  3.39442E+01 -1.43376E+01  3.20175E+01 -3.08917E+01  1.18835E+01 -2.89009E+01 -1.26074E+01
 -1.18568E+01 -3.01530E+01  1.46285E+01 -3.16696E+01  3.47610E+01 -1.30205E+01  3.69187E+01  1.35148E+01
  2.18935E+01  3.62852E+01 -6.53794E+00  4.41564E+01 -3.27379E+01  3.00697E+01 -4.31438E+01  3.82363E+00
 -3.53951E+01 -2.35050E+01 -1.04624E+01 -3.92782E+01  1.73582E+01 -3.34314E+01  3.35379E+01 -1.25187E+01
  3.29586E+01  1.41612E+01  1.34357E+01  3.36875E+01 -1.30412E+01  3.37923E+01 -3.22062E+01  1.78900E+01
 -3.72133E+01 -7.10222E+00 -2.31950E+01 -2.90355E+01  3.79836E-01 -3.45303E+01  2.02865E+01 -2.46148E+01
  2.89790E+01 -3.99868E+00  1.98325E+01  1.63338E+01  3.53354E-01  2.26786E+01 -1.71809E+01  1.45824E+01
 -2.48367E+01 -4.65839E+00 -1.47983E+01 -2.46685E+01  6.69537E+00 -3.11257E+01  2.75806E+01 -2.20458E+01
  3.87938E+01  5.05053E-01  3.06375E+01  2.63056E+01  7.54561E+00  3.96664E+01 -1.88483E+01  3.60586E+01
 -3.80787E+01  1.51951E+01 -3.77257E+01 -1.38146E+01 -1.91290E+01 -3.43789E+01  7.94404E+00 -3.91726E+01
  3.27768E+01 -2.45554E+01  4.07055E+01  2.96864E+00  2.95800E+01  2.74608E+01  6.12457E+00  3.99064E+01
 -2.02854E+01  3.36148E+01 -3.42231E+01  1.18823E+01 -3.09645E+01 -1.12874E+01 -1.42673E+01 -2.67194E+01
  8.54496E+00 -2.59473E+01  2.24951E+01 -9.73779E+00  2.15649E+01  9.88246E+00  7.53132E+00  2.42070E+01
 -1.38517E+01  2.39087E+01 -2.80631E+01  8.11878E+00 -2.81503E+01 -1.24505E+01 -1.43928E+01 -2.91914E+01
  8.54953E+00 -3.17875E+01  2.62160E+01 -1.77520E+01  3.03812E+01  3.41702E+00  1.95428E+01  2.30338E+01
 -2.95903E+00  2.95064E+01 -2.28004E+01  1.83541E+01 -3.03488E+01 -2.53309E+00 -2.19523E+01 -2.46500E+01
  8.51207E-01 -3.51108E+01  2.42793E+01 -2.70820E+01  3.73891E+01 -6.24128E+00  3.40380E+01  1.96960E+01
  1.32277E+01  3.68633E+01 -1.26741E+01  3.58752E+01 -3.20848E+01  1.94576E+01 -3.65065E+01 -6.55080E+00
 -2.18769E+01 -2.83456E+01  1.93092E+00 -3.45944E+01  2.39777E+01 -2.49682E+01  3.44453E+01 -2.61658E+00
  2.66309E+01  1.99809E+01  7.57107E+00  3.08359E+01 -1.34124E+01  2.74527E+01 -2.64610E+01  1.05107E+01
 -2.33894E+01 -9.31581E+00 -9.11649E+00 -2.03512E+01  8.53731E+00 -1.90700E+01  2.00881E+01 -4.66755E+00
  1.66398E+01  1.33485E+01  1.88951E+00  2.33979E+01 -1.70021E+01  2.10718E+01 -3.02357E+01  4.49305E+00
 -2.77042E+01 -1.73864E+01 -1.16084E+01 -3.23245E+01  1.15426E+01 -3.41685E+01  3.12651E+01 -1.91181E+01
  3.54929E+01  5.11235E+00  2.38805E+01  2.59141E+01  1.15053E+00  3.51528E+01 -2.24482E+01  2.62986E+01
 -3.32918E+01  4.64510E+00 -2.82192E+01 -1.80834E+01 -9.27461E+00 -3.26806E+01  1.47492E+01 -3.01769E+01
  2.98242E+01 -1.30257E+01  3.06754E+01  8.88494E+00  1.67092E+01  2.64111E+01 -5.31791E+00  2.90493E+01
 -2.19054E+01  1.67979E+01 -2.65818E+01 -2.49444E+00 -1.66982E+01 -2.03882E+01  2.92704E+00 -2.56215E+01
  1.96547E+01 -1.63624E+01  2.63686E+01  1.31161E+00  1.88810E+01  1.97486E+01  3.79158E-01  2.72383E+01
 -1.73038E+01  2.04608E+01 -2.65347E+01  3.95982E+00 -2.17545E+01 -1.53173E+01 -4.64391E+00 -2.52287E+01
  1.37206E+01 -2.10038E+01  2.51531E+01 -5.64995E+00  2.26477E+01  1.46032E+01  6.23702E+00  2.71352E+01
 -1.38899E+01  2.55429E+01 -2.90016E+01  1.09935E+01 -3.04194E+01 -1.13307E+01 -1.60716E+01 -2.85079E+01
  5.31007E+00 -3.23722E+01  2.49099E+01 -2.17544E+01  3.24993E+01 -4.15175E-02  2.35645E+01  2.02930E+01
  4.63738E+00  2.97940E+01 -1.63003E+01  2.49394E+01 -2.82388E+01  6.79090E+00 -2.45717E+01 -1.34966E+01
 -9.43804E+00 -2.60822E+01  1.06578E+01 -2.57102E+01  2.47665E+01 -1.12539E+01  2.49092E+01  7.78904E+00
