 $NMID ID='gsh', FMTDAT='(8E13.5)'
 TRAMP=1., VOLUME=1. $END
  6.16003E+01 -3.43427E-01  3.77015E+01  4.02465E+01 -1.47345E+00  4.12166E+01 -2.05623E+01  1.71186E+01
 -1.18295E+01 -7.33129E+00  1.03159E+01 -5.46105E+00  9.11032E+00  1.40239E+01 -8.67900E+00  1.48512E+01
 -1.60641E+01  1.53411E+00 -1.18736E+01 -1.25985E+01  2.78168E+00 -1.78712E+01  1.04343E+01 -9.75163E+00
  9.18295E+00 -9.41466E+00  1.89508E+01 -1.12097E+01  2.84950E+01  9.34270E-02  2.84396E+01  1.55203E+01
  1.71444E+01  3.08583E+01 -4.31472E+00  3.11198E+01 -1.26178E+01  1.72077E+01 -1.13234E+01  1.14096E+01
 -1.41772E+01  6.76035E+00 -1.35260E+01 -6.65982E-01 -1.05013E+01 -7.75671E+00  7.53428E-01 -1.36701E+01
  1.24458E+01 -3.19551E+00  3.97164E+00  8.49629E+00 -6.47399E+00  6.79031E-01 -9.05957E-01 -1.31572E+01
  2.03112E+01 -1.71490E+01  4.17344E+01  6.86409E+00  2.78323E+01  4.45108E+01 -1.22881E+01  5.16331E+01
 -3.89712E+01  2.65113E+01 -3.64015E+01 -6.94224E+00 -8.88671E+00 -2.00792E+01  7.53484E+00 -2.05807E+00
 -4.49567E+00  1.13034E+01 -1.69773E+01  3.08493E+00 -1.54249E+01 -1.22724E+01  1.39966E+00 -2.07740E+01
  1.75649E+01 -8.31300E+00  1.33194E+01  7.02318E+00  6.64066E+00  8.21445E+00  6.94934E+00  9.76374E+00
  6.26070E+00  1.49616E+01  1.10924E+00  2.42198E+01 -1.73211E+01  2.78262E+01 -3.20814E+01  1.11110E+01
 -2.75306E+01 -6.71572E+00 -1.77125E+01 -1.42081E+01 -7.56984E+00 -1.53043E+01 -3.05242E+00 -1.08133E+01
 -1.91183E+00 -1.21242E+01  7.04293E+00 -1.08873E+01  9.19122E+00 -8.76939E-02  2.57431E+00  3.83404E+00
 -3.79522E-01  1.54758E+00  2.01229E+00 -1.98670E+00  1.20749E+01  2.76306E+00  9.66976E+00  2.32653E+01
 -1.61764E+01  3.17028E+01 -3.87308E+01  1.38346E+01 -4.03399E+01 -1.54615E+01 -1.71905E+01 -3.59819E+01
  1.01482E+01 -2.63688E+01  1.10642E+01 -4.70940E+00 -1.75480E+00 -4.99487E-01 -6.85699E+00 -9.32985E+00
  2.03435E+00 -1.89724E+01  1.89873E+01 -1.19938E+01  1.85696E+01  8.30042E+00  3.45094E+00  1.52137E+01
 -5.85409E+00  1.05945E+01 -8.68210E+00  4.72280E+00 -6.62282E+00  3.07879E+00 -1.17942E+01  7.28383E+00
 -2.39671E+01 -1.24737E+00 -2.14389E+01 -1.93800E+01 -7.14672E+00 -2.82522E+01  8.56010E+00 -2.62593E+01
  1.72662E+01 -1.34682E+01  1.23058E+01 -4.02354E+00  1.01386E+01 -4.76821E+00  1.27709E+01 -8.53514E-01
  1.00409E+01  4.70952E+00  5.77081E+00  7.84250E+00 -1.13017E+00  8.04923E+00 -3.27231E+00  2.41501E+00
 -3.10959E-01  4.22213E+00 -8.28802E+00  8.68300E+00 -1.91625E+01  2.66549E-01 -2.03361E+01 -1.59159E+01
 -7.10886E+00 -3.17652E+01  1.76342E+01 -3.00145E+01  2.78558E+01 -8.77766E+00  1.83838E+01  5.58258E+00
  7.61187E+00  6.00340E+00  4.53983E+00 -1.07568E+00  1.34380E+01 -3.22551E+00  1.74444E+01  1.01400E+01
  4.31168E+00  1.95525E+01 -8.88669E+00  1.42036E+01 -1.38235E+01  3.15481E+00 -8.96303E+00 -6.89260E+00
 -1.57823E+00 -5.97174E+00 -4.79590E+00 -4.14143E+00 -5.51970E+00 -1.28883E+01  4.36578E+00 -1.91099E+01
  1.71003E+01 -1.68176E+01  2.66404E+01 -4.03331E+00  2.12011E+01  1.19171E+01  9.14325E+00  1.43573E+01
  5.08480E+00  1.14184E+01  2.91819E+00  1.10671E+01  1.07893E+00  1.12597E+01 -4.00986E+00  1.28177E+01
 -1.11313E+01  6.78424E+00 -8.79660E+00 -1.58864E+00 -5.28149E+00 -2.67333E+00 -5.24145E+00 -4.99837E+00
 -2.92027E+00 -8.90376E+00  1.95285E+00 -1.37754E+01  1.50398E+01 -1.47381E+01  2.55272E+01 -6.12204E-01
  1.96088E+01  1.52284E+01  7.23134E+00  2.03302E+01 -3.34149E+00  1.63723E+01 -4.41323E+00  7.56067E+00
  1.15105E+00  8.38502E+00 -3.54558E+00  1.46533E+01 -1.30902E+01  1.12825E+01 -1.71468E+01  1.65237E+00
 -1.31197E+01 -9.73153E+00 -7.56168E-01 -1.28920E+01  4.97120E+00 -5.71735E+00  3.26617E+00 -3.55141E+00
  5.80134E+00 -4.71711E+00  1.05826E+01 -2.88228E+00  1.60540E+01  3.88178E+00  1.33281E+01  1.71993E+01
 -7.09258E-01  2.22359E+01 -1.02822E+01  1.58373E+01 -1.30898E+01  8.80822E+00 -1.18610E+01  2.86713E+00
 -9.38289E+00  2.12814E+00 -1.25184E+01  7.34448E-01 -1.19318E+01 -6.87849E+00 -5.31091E+00 -1.02295E+01
 -2.59604E-01 -9.87614E+00  4.77569E+00 -7.65692E+00  6.40411E+00 -3.44430E+00  8.11202E+00 -2.24027E+00
  1.25991E+01  4.01978E+00  8.51866E+00  1.44629E+01 -1.77048E+00  1.80818E+01 -1.18866E+01  1.51189E+01
 -1.74474E+01  5.06567E+00 -1.24648E+01 -3.06708E+00 -8.46529E+00 -1.89207E+00 -1.05170E+01 -2.44579E+00
 -1.09831E+01 -6.76983E+00 -8.44765E+00 -1.27771E+01  1.17631E+00 -1.65623E+01  1.03703E+01 -9.47647E+00
  9.51754E+00 -9.40725E-01  6.73567E+00  2.23043E+00  4.53911E+00  4.16098E+00  3.86208E+00  4.95010E+00
  3.23899E+00  1.01208E+01 -5.92807E+00  1.42968E+01 -1.53187E+01  8.06114E+00 -1.72770E+01 -1.28843E+00
 -1.39482E+01 -9.75114E+00 -5.71382E+00 -1.28513E+01 -1.76848E+00 -9.55557E+00 -1.67300E+00 -1.00455E+01
  2.37788E+00 -1.11861E+01  6.19761E+00 -9.23601E+00  1.00061E+01 -6.11130E+00  1.11564E+01  8.74420E-01
  6.92063E+00  5.15990E+00  4.67964E+00  6.52748E+00  8.47524E-01  1.00215E+01 -6.21373E+00  9.47080E+00
 -1.13174E+01  5.36193E+00 -1.48723E+01 -1.95030E+00 -1.10160E+01 -1.12869E+01 -2.70753E+00 -1.28644E+01
  8.36339E-01 -1.05971E+01  3.08030E+00 -9.52848E+00  4.39785E+00 -8.41552E+00  7.42149E+00 -9.19614E+00
  1.34341E+01 -4.88685E+00  1.27807E+01  3.72873E+00  7.63468E+00  7.86396E+00  2.47061E+00  9.28846E+00
 -2.41344E+00  7.17727E+00 -3.10553E+00  4.79691E+00 -5.84208E+00  5.42802E+00 -1.08906E+01  9.27925E-01
 -1.04453E+01 -6.58607E+00 -6.14852E+00 -1.24636E+01  2.37190E+00 -1.51635E+01  9.78802E+00 -9.86346E+00
  9.82837E+00 -4.01734E+00  9.43065E+00 -1.82776E+00  9.16415E+00  9.07796E-01  8.68711E+00  2.51542E+00
  8.91487E+00  6.41127E+00  4.04946E+00  1.06564E+01 -1.46244E+00  9.56924E+00 -4.77400E+00  7.87400E+00
 -8.64863E+00  4.26024E+00 -8.94229E+00 -1.27271E+00 -7.72970E+00 -5.23532E+00 -4.47599E+00 -1.05019E+01
  3.37678E+00 -1.17672E+01  8.30237E+00 -7.55456E+00  1.02794E+01 -3.55046E+00  1.03943E+01  1.33183E+00
  7.78998E+00  3.74179E+00  7.77677E+00  4.85817E+00  6.26147E+00  9.13977E+00  1.14534E+00  1.07936E+01
 -3.03031E+00  9.97203E+00 -7.55907E+00  7.24399E+00 -8.62903E+00  1.60334E+00 -6.84500E+00 -1.04365E+00
 -6.92847E+00 -3.64250E+00 -4.14306E+00 -7.81543E+00  5.70496E-01 -9.13169E+00  5.84137E+00 -8.98638E+00
  1.16396E+01 -4.13154E+00  1.11798E+01  3.51331E+00  7.43187E+00  6.95614E+00  4.17713E+00  8.87906E+00
  2.48047E-01  8.67998E+00 -1.04720E+00  7.56984E+00 -3.50885E+00  8.55610E+00 -7.76885E+00  6.17544E+00
 -8.85751E+00  2.13879E+00 -9.24994E+00 -1.52037E+00 -6.99787E+00 -6.32395E+00 -2.41706E+00 -7.77923E+00
  6.61322E-01 -8.01927E+00  5.58165E+00 -7.46636E+00  9.09627E+00 -2.60627E+00  8.89136E+00  2.02047E+00
  7.61024E+00  6.45378E+00  2.84164E+00  9.69572E+00 -1.41218E+00  8.53005E+00 -3.47044E+00  7.77099E+00
 -6.79272E+00  6.18198E+00 -8.05130E+00  2.76541E+00 -8.64783E+00  3.70059E-01 -8.59058E+00 -3.91459E+00
 -4.89768E+00 -6.91815E+00 -2.05839E+00 -7.21504E+00  1.11205E+00 -8.07998E+00  5.27850E+00 -6.16333E+00
  7.05457E+00 -3.02097E+00  8.78205E+00  5.68186E-01  7.40905E+00  6.40924E+00  2.29508E+00  8.96847E+00
 -1.70952E+00  8.80021E+00 -5.98366E+00  7.29958E+00 -8.00779E+00  3.06404E+00 -7.51009E+00  5.56915E-01
 -8.10639E+00 -1.96290E+00 -6.34531E+00 -5.54685E+00 -3.62809E+00 -6.79084E+00 -1.10258E+00 -8.19102E+00
  3.28317E+00 -7.67664E+00  5.46065E+00 -4.70509E+00  6.81507E+00 -2.70789E+00  8.05046E+00  1.28889E+00
  5.82597E+00  5.23228E+00  3.08839E+00  7.23586E+00 -1.15793E+00  8.94538E+00 -6.27419E+00  6.64419E+00
 -7.85866E+00  2.65989E+00 -8.52402E+00 -6.23655E-01 -7.20943E+00 -4.86696E+00 -3.84507E+00 -6.51635E+00
 -1.86736E+00 -7.16117E+00  1.48192E+00 -7.81322E+00  4.36960E+00 -5.68570E+00  5.50018E+00 -3.98190E+00
  7.40241E+00 -1.49969E+00  6.86508E+00  2.38389E+00  5.15486E+00  4.48632E+00  3.12188E+00  7.15040E+00
 -1.64072E+00  8.08848E+00 -5.14653E+00  5.77531E+00 -7.48506E+00  3.21239E+00 -8.72509E+00 -1.44497E+00
 -6.13471E+00 -5.45718E+00 -3.37448E+00 -6.89916E+00 -9.24225E-02 -8.19584E+00  3.84015E+00 -6.70323E+00
  5.18887E+00 -4.25100E+00  6.59107E+00 -2.39950E+00  6.83552E+00  1.03560E+00  5.18716E+00  2.97635E+00
  4.45590E+00  4.64365E+00  1.78938E+00  6.88658E+00 -1.57556E+00  6.58754E+00 -4.18817E+00  5.86040E+00
 -7.63433E+00  3.22133E+00 -8.03308E+00 -1.70834E+00 -6.08251E+00 -4.94351E+00 -3.31059E+00 -7.76165E+00
  1.59296E+00 -8.26105E+00  4.62463E+00 -5.69499E+00  6.17569E+00 -3.55675E+00  7.20750E+00 -1.95695E-01
  5.58225E+00  2.61304E+00  4.41562E+00  3.67928E+00  2.87947E+00  5.64308E+00 -7.31020E-03  5.98053E+00
 -1.73153E+00  5.61066E+00 -4.62101E+00  5.18845E+00 -6.96977E+00  1.96436E+00 -6.90005E+00 -1.25843E+00
 -6.30200E+00 -4.61983E+00 -2.78394E+00 -7.89257E+00  1.67974E+00 -7.61070E+00  4.66113E+00 -6.06739E+00
  7.43911E+00 -2.99408E+00  7.14188E+00  1.37950E+00  5.19739E+00  3.47978E+00  3.54583E+00  5.24150E+00
  5.38363E-01  5.88912E+00 -1.14681E+00  4.86769E+00 -2.60100E+00  4.86871E+00 -5.01120E+00  3.38532E+00
 -5.73616E+00  1.02749E+00 -6.46305E+00 -1.18579E+00 -5.61714E+00 -5.04179E+00 -2.02878E+00 -7.13677E+00
  1.23925E+00 -7.31921E+00  5.17661E+00 -6.25288E+00  7.62127E+00 -2.13937E+00  6.88472E+00  1.51595E+00
  5.58091E+00  4.26282E+00  2.42516E+00  6.39969E+00 -6.98306E-01  5.64701E+00 -2.12212E+00  4.80263E+00
 -4.11634E+00  3.66616E+00 -4.76689E+00  1.43268E+00 -5.00886E+00  2.55399E-01 -5.64400E+00 -2.19590E+00
 -3.91212E+00 -4.92472E+00 -1.68134E+00 -6.15190E+00  1.45172E+00 -7.21211E+00  5.52112E+00 -5.44274E+00
  7.03598E+00 -1.85670E+00  7.26018E+00  1.41949E+00  5.51771E+00  5.24089E+00  1.63512E+00  6.55367E+00
 -9.73691E-01  5.90003E+00 -3.45980E+00  4.91745E+00 -4.89654E+00  2.25553E+00 -4.52564E+00  5.07670E-01
 -4.91119E+00 -9.15962E-01 -4.13267E+00 -3.25754E+00 -2.58199E+00 -4.37890E+00 -1.04662E+00 -5.84622E+00
  2.45238E+00 -6.30910E+00  5.18986E+00 -4.18129E+00  6.70824E+00 -1.71902E+00  7.25416E+00  2.12956E+00
  4.66131E+00  5.50175E+00  1.59834E+00  6.34562E+00 -1.38078E+00  6.48660E+00 -4.38271E+00  4.50251E+00
