 $NMID ID='ins', FMTDAT='(8E13.5)'
 TRAMP=1., VOLUME=1. $END
  3.77163E+01 -3.56497E-01  2.94086E+01  1.93645E+01  1.64504E+01  2.89162E+01 -6.17690E-01  3.47444E+01
 -1.99525E+01  2.62111E+01 -2.62762E+01  1.05879E+01 -2.73624E+01 -2.66503E+00 -2.00694E+01 -1.82381E+01
 -3.90613E+00 -2.23758E+01  6.11924E+00 -1.82654E+01  1.56279E+01 -1.21682E+01  1.84162E+01  2.04209E+00
  1.05678E+01  1.03895E+01  4.47539E+00  1.37566E+01 -6.11194E+00  1.54234E+01 -1.42392E+01  6.55169E+00
 -1.37289E+01 -8.84257E-01 -1.40758E+01 -7.86568E+00 -6.85069E+00 -1.64377E+01  2.46186E+00 -1.56145E+01
  7.56602E+00 -1.45731E+01  1.64029E+01 -1.03626E+01  1.84587E+01  1.67925E-01  1.65385E+01  5.95347E+00
  1.48722E+01  1.45225E+01  4.54747E+00  2.07911E+01 -3.97486E+00  1.90403E+01 -1.19637E+01  1.80249E+01
 -2.13761E+01  9.17530E+00 -2.08067E+01 -2.55000E+00 -1.82213E+01 -1.01034E+01 -1.11444E+01 -1.98125E+01
  2.41773E+00 -2.06401E+01  9.86992E+00 -1.50861E+01  1.66777E+01 -8.91232E+00  1.79031E+01  3.98550E+00
  9.41151E+00  1.13309E+01  2.66660E+00  1.31734E+01 -7.18772E+00  1.28665E+01 -1.37048E+01  2.70571E+00
 -1.04649E+01 -5.70270E+00 -6.70853E+00 -1.13754E+01  3.39303E+00 -1.57618E+01  1.33611E+01 -9.09081E+00
  1.53596E+01 -1.10856E+00  1.63789E+01  7.59753E+00  8.74142E+00  1.76865E+01 -2.42253E+00  1.76937E+01
 -9.23910E+00  1.49895E+01 -1.73209E+01  8.51037E+00 -1.71710E+01 -3.18339E+00 -1.17353E+01 -8.32027E+00
 -7.45212E+00 -1.26574E+01  1.57859E+00 -1.33750E+01  5.42565E+00 -7.32968E+00  5.59203E+00 -5.14275E+00
  7.01759E+00 -1.08501E+00  2.74240E+00  1.55996E+00  1.92940E+00 -1.31608E+00  3.21794E+00 -1.54583E-01
  2.08432E+00 -1.11707E+00  5.86922E+00 -1.23892E+00  5.93108E+00  3.68764E+00  3.60114E+00  4.41558E+00
  3.29840E+00  7.00697E+00 -2.31857E+00  8.49225E+00 -4.76832E+00  4.40363E+00 -5.04640E+00  3.60201E+00
 -7.18665E+00  8.74635E-02 -3.56770E+00 -3.16323E+00 -2.22288E+00 -1.36849E+00 -2.20399E+00 -2.86443E+00
  3.75586E-01 -1.47784E+00 -2.23711E+00  1.08985E-01 -2.42185E+00 -2.86581E+00 -1.16555E+00 -2.28325E+00
 -2.37380E+00 -4.25707E+00  1.63316E+00 -6.24764E+00  3.44299E+00 -3.44439E+00  3.91265E+00 -3.72840E+00
  6.82508E+00 -1.03760E+00  4.44649E+00  2.24254E+00  3.83915E+00  1.28123E+00  4.08141E+00  3.74485E+00
  1.26105E+00  3.59529E+00  2.86625E+00  2.94814E+00  1.87425E+00  6.39361E+00 -9.64191E-01  6.05616E+00
 -1.68851E+00  7.38324E+00 -7.37349E+00  7.88061E+00 -1.05646E+01  2.59860E+00 -1.10866E+01 -7.80481E-01
 -1.19961E+01 -7.17000E+00 -5.66611E+00 -1.33041E+01  7.66932E-01 -1.30409E+01  6.52623E+00 -1.27223E+01
  1.35224E+01 -6.73808E+00  1.27668E+01  1.88236E+00  9.87088E+00  6.33676E+00  4.88218E+00  1.15129E+01
 -4.05624E+00  1.03628E+01 -7.16491E+00  4.52161E+00 -8.43961E+00  2.09150E-01 -6.50045E+00 -6.97975E+00
  1.50528E+00 -8.97095E+00  6.04721E+00 -5.77771E+00  1.01765E+01 -2.28233E+00  1.11602E+01  6.39845E+00
  4.62143E+00  1.19506E+01 -1.07736E+00  1.30569E+01 -8.99447E+00  1.29033E+01 -1.56211E+01  5.20515E+00
 -1.49934E+01 -2.66146E+00 -1.35306E+01 -9.07705E+00 -6.85417E+00 -1.60086E+01  2.21414E+00 -1.54661E+01
  7.29074E+00 -1.28117E+01  1.33356E+01 -8.37071E+00  1.42585E+01  2.88813E-01  1.09982E+01  4.77553E+00
  8.64533E+00  8.99984E+00  1.92820E+00  1.16422E+01 -2.71907E+00  8.65453E+00 -4.97730E+00  7.18582E+00
 -8.40127E+00  3.08324E+00 -6.40119E+00 -1.99257E+00 -4.31194E+00 -2.98957E+00 -2.23477E+00 -5.63690E+00
  2.95232E+00 -4.69151E+00  3.81435E+00 -9.50304E-01  4.36733E+00  7.12681E-01  3.71804E+00  5.41145E+00
 -1.84220E+00  7.02109E+00 -4.93579E+00  5.07506E+00 -8.73527E+00  3.43015E+00 -1.12256E+01 -3.37018E+00
 -7.42008E+00 -9.03220E+00 -3.60739E+00 -1.20185E+01  3.57138E+00 -1.47110E+01  1.16316E+01 -1.02922E+01
  1.43210E+01 -3.92660E+00  1.61291E+01  2.96722E+00  1.22181E+01  1.19950E+01  4.00831E+00  1.49289E+01
 -2.34655E+00  1.49734E+01 -1.03264E+01  1.19855E+01 -1.35952E+01  3.47209E+00 -1.16727E+01 -2.37638E+00
 -9.18632E+00 -7.64869E+00 -2.03733E+00 -1.06713E+01  3.32169E+00 -7.31399E+00  5.30367E+00 -4.44414E+00
  7.04537E+00  3.38478E-01  3.17278E+00  4.98893E+00 -8.14855E-01  4.33628E+00 -3.34413E+00  3.86647E+00
 -6.87252E+00  2.56962E-01 -5.03720E+00 -4.94409E+00 -2.12133E+00 -6.31901E+00  9.68584E-01 -8.40027E+00
  6.75793E+00 -6.86386E+00  8.42876E+00 -2.22783E+00  9.14843E+00  6.24552E-01  8.74731E+00  6.00476E+00
  3.83153E+00  8.98476E+00  7.23276E-01  8.94949E+00 -3.43091E+00  9.62238E+00 -7.77442E+00  5.92334E+00
 -7.88690E+00  2.29440E+00 -8.91021E+00 -4.16850E-01 -7.25726E+00 -5.23890E+00 -3.33108E+00 -6.23101E+00
 -1.62448E+00 -6.74394E+00  2.36957E+00 -6.89577E+00  4.35862E+00 -3.29052E+00  3.84979E+00 -1.81916E+00
  4.63825E+00  3.37289E-01  1.98006E+00  2.68613E+00  1.26469E-01  1.18262E+00  4.20623E-03  1.12663E+00
 -1.59603E+00 -3.82724E-01  4.97738E-01 -2.73402E+00  2.43148E+00 -1.48759E+00  3.20512E+00 -1.33914E+00
  5.65082E+00  9.09048E-01  4.14881E+00  4.79830E+00  1.92561E+00  5.67257E+00 -2.89673E-01  7.59114E+00
 -5.25303E+00  6.77447E+00 -7.00516E+00  3.05597E+00 -7.96988E+00  7.77661E-01 -8.13610E+00 -3.89696E+00
 -4.15968E+00 -6.75027E+00 -1.64390E+00 -6.79038E+00  1.57867E+00 -7.51636E+00  4.99692E+00 -4.57219E+00
  4.55004E+00 -1.84009E+00  5.01884E+00 -5.12464E-01  3.80763E+00  2.39780E+00  1.20384E+00  1.99739E+00
  1.38676E+00  1.51039E+00  4.52938E-02  1.81224E+00  1.36877E-01 -1.26040E-01  1.76567E+00  6.73276E-01
  9.35756E-01  1.37301E+00  1.80130E+00  1.34306E+00  1.26413E+00  3.72178E+00 -1.07840E+00  3.56156E+00
 -1.43352E+00  3.38480E+00 -3.86089E+00  3.54321E+00 -5.13600E+00  6.53768E-01 -4.46065E+00 -5.50707E-01
 -5.18678E+00 -2.43027E+00 -3.00347E+00 -5.08332E+00 -8.91939E-01 -4.72870E+00  2.51611E-01 -5.54549E+00
  3.46458E+00 -4.86096E+00  4.08609E+00 -2.31982E+00  4.53451E+00 -1.66578E+00  5.31511E+00  9.89080E-01
  3.14989E+00  2.68565E+00  2.54149E+00  2.60565E+00  1.26923E+00  4.06189E+00 -9.37996E-01  2.96842E+00
 -5.04120E-01  2.09204E+00 -1.54173E+00  2.33149E+00 -1.69059E+00  5.77760E-01 -5.63868E-01  1.05469E+00
 -1.73988E+00  1.25945E+00 -1.29780E+00  3.64967E-01 -1.64274E+00  1.43951E+00 -3.25236E+00  2.47081E-01
 -2.54537E+00 -9.01295E-01 -3.22903E+00 -1.22375E+00 -2.77972E+00 -3.72354E+00 -5.16109E-01 -4.08339E+00
  9.91354E-02 -4.27593E+00  2.63131E+00 -4.80031E+00  4.40175E+00 -2.42202E+00  4.34992E+00 -1.24387E+00
  5.50333E+00  5.91640E-01  4.02225E+00  3.37675E+00  2.30540E+00  3.53582E+00  1.42358E+00  4.66286E+00
 -1.43177E+00  4.57966E+00 -2.16003E+00  2.71073E+00 -2.68958E+00  2.52231E+00 -3.74437E+00  6.05813E-01
 -2.29240E+00 -6.76643E-01 -2.25989E+00 -4.11392E-01 -1.84041E+00 -1.73807E+00 -4.53226E-01 -1.12129E+00
 -1.30221E+00 -7.82265E-01 -7.09563E-01 -1.69807E+00 -5.08181E-01 -8.75488E-01 -1.29325E+00 -1.89452E+00
  1.89306E-01 -2.65999E+00  4.42591E-01 -2.14253E+00  1.30593E+00 -3.17797E+00  3.37349E+00 -2.08182E+00
  3.28886E+00 -7.22129E-01  4.24227E+00 -6.56793E-02  4.17593E+00  2.63787E+00  2.22729E+00  3.57519E+00
  1.57861E+00  4.23355E+00 -8.65334E-01  5.22880E+00 -2.90514E+00  3.51227E+00 -3.31394E+00  2.61857E+00
 -4.82670E+00  1.09210E+00 -4.03332E+00 -1.53691E+00 -2.81061E+00 -1.93528E+00 -2.32027E+00 -3.17399E+00
  2.92287E-02 -3.48121E+00  6.34957E-01 -2.10446E+00  9.82343E-01 -2.24031E+00  1.93777E+00 -9.53528E-01
  7.34507E-01 -1.54587E-01  8.44323E-01 -8.58774E-01  9.13521E-01 -1.14357E-01  2.22006E-01 -8.96989E-01
  1.67234E+00 -1.32860E+00  1.95824E+00 -2.47409E-01  2.35576E+00 -3.96825E-01  3.45151E+00  1.26551E+00
  2.14838E+00  2.93200E+00  1.45984E+00  3.28916E+00  2.83238E-02  4.77226E+00 -2.71909E+00  4.06102E+00
 -3.50546E+00  2.59897E+00 -4.91412E+00  1.53589E+00 -5.20831E+00 -1.50308E+00 -3.41731E+00 -3.01820E+00
 -2.55480E+00 -3.99014E+00 -9.46585E-02 -5.10347E+00  2.05227E+00 -3.59412E+00  2.50383E+00 -2.63970E+00
  3.77266E+00 -1.27697E+00  2.98351E+00  9.98919E-01  1.74620E+00  1.10523E+00  1.41831E+00  1.75158E+00
 -3.10194E-01  1.68147E+00 -3.23117E-01  1.91746E-01  1.46909E-01  3.39171E-01 -2.52216E-02 -3.46246E-01
  1.51804E+00 -3.84997E-01  1.61921E+00  1.19187E+00  1.22275E+00  1.49866E+00  1.17855E+00  2.90337E+00
 -1.05321E+00  3.75127E+00 -2.42424E+00  2.72642E+00 -3.67037E+00  2.34012E+00 -5.29942E+00  6.33683E-02
 -4.35492E+00 -2.49782E+00 -3.40967E+00 -3.76959E+00 -1.52397E+00 -5.77349E+00  1.80566E+00 -5.48847E+00
  3.35941E+00 -3.98495E+00  5.13601E+00 -2.55902E+00  5.63714E+00  7.66896E-01  3.82861E+00  2.71461E+00
  2.60146E+00  3.77777E+00  2.69527E-02  4.65870E+00 -2.12800E+00  2.91639E+00 -2.31358E+00  1.51916E+00
 -2.84348E+00  6.65374E-02 -1.43259E+00 -1.83244E+00  3.54309E-01 -1.30429E+00  8.36280E-01 -8.13959E-01
  1.94954E+00  2.76598E-01  1.03635E+00  2.38609E+00 -7.26018E-01  2.44164E+00 -1.78657E+00  2.46189E+00
 -3.91932E+00  1.44694E+00 -4.16716E+00 -1.28614E+00 -3.21103E+00 -2.70846E+00 -2.20582E+00 -4.52941E+00
  7.94280E-01 -5.33636E+00  2.81441E+00 -3.92994E+00  4.15965E+00 -2.89329E+00  5.47925E+00 -3.81641E-01
  4.31892E+00  2.13486E+00  3.17997E+00  3.09833E+00  1.60424E+00  4.54644E+00 -9.80502E-01  4.15257E+00
 -1.83159E+00  2.93319E+00 -2.93422E+00  2.24851E+00 -3.38316E+00  1.41123E-01 -2.22139E+00 -8.49118E-01
 -1.96569E+00 -1.30801E+00 -7.04533E-01 -2.18811E+00  4.80711E-01 -1.24369E+00  3.06526E-01 -8.11549E-01
  9.25483E-01 -3.79025E-01  2.33563E-01  8.11077E-01 -8.06235E-01  2.62844E-01 -8.14458E-01 -1.64284E-03
 -1.68133E+00 -6.15625E-01 -1.06913E+00 -2.32511E+00  3.20399E-01 -2.48034E+00  1.18485E+00 -2.75584E+00
  3.26704E+00 -2.24030E+00  3.98559E+00  2.25736E-02  3.62559E+00  1.43181E+00  3.13906E+00  3.41199E+00
  6.15269E-01  4.70831E+00 -1.38066E+00  3.92209E+00 -2.83910E+00  3.25436E+00 -4.29510E+00  1.14734E+00
 -3.42397E+00 -1.11137E+00 -2.41027E+00 -1.84065E+00 -1.16648E+00 -2.81239E+00  7.45201E-01 -2.13469E+00
  7.67202E-01 -8.21466E-01  7.22662E-01 -5.08272E-01  3.08057E-01  4.16380E-01 -1.01208E+00 -1.12910E-01
