 $NMID ID='lac', FMTDAT='(8E13.5)'
 TRAMP=1., VOLUME=1. $END
  2.56553E+01  2.13533E-01  1.96470E+00  2.05759E+01 -1.22590E+01 -3.21342E+00  1.17855E+01 -1.08249E+01
  1.62267E+01  1.40241E+01 -8.48267E+00  1.89802E+01 -1.39427E+01 -4.57905E+00  9.73296E+00 -7.35708E+00
  7.36906E+00  1.90577E+01 -2.20806E+01  1.18970E+01 -1.14306E+01 -1.70164E+01  1.26420E+01 -2.85191E+00
 -5.54936E+00  1.55229E+01 -2.09412E+01 -5.27007E+00 -6.31244E-01 -2.02276E+01  1.36652E+01 -1.75334E+00
 -5.37790E+00  1.02907E+01 -1.48019E+01 -1.29607E+01  1.32561E+01 -2.03721E+01  1.78554E+01  9.30551E+00
 -9.94572E+00  8.54824E+00 -2.53333E+00 -1.66401E+01  2.11763E+01 -4.91233E+00  9.20733E+00  1.75658E+01
 -1.10535E+01  6.91633E+00  5.88340E-01 -1.11458E+01  1.83437E+01  4.57603E+00 -1.90357E+00  2.32915E+01
 -1.95732E+01  3.66877E-01  4.70155E+00 -1.22415E+01  1.03288E+01  1.35167E+01 -1.65404E+01  1.42304E+01
 -1.57591E+01 -1.15667E+01  6.94816E+00 -1.03897E+01  3.91919E+00  1.01600E+01 -1.77344E+01  4.01507E+00
 -8.85610E+00 -2.04888E+01  1.63888E+01 -9.29679E+00  1.67665E+00  1.28406E+01 -1.55806E+01 -6.82010E+00
  7.89418E+00 -2.03092E+01  1.90501E+01  3.32309E+00 -2.06054E+00  1.19876E+01 -7.66735E+00 -7.61994E+00
  1.36034E+01 -1.10828E+01  1.64943E+01  1.33440E+01 -9.56513E+00  1.52002E+01 -7.39553E+00 -1.02392E+01
  1.67451E+01 -1.59391E+00  2.68447E+00  2.14451E+01 -1.83227E+01  5.56133E+00 -3.00449E+00 -1.16286E+01
  1.02171E+01  3.78819E+00 -7.09674E+00  1.54744E+01 -1.96889E+01 -4.09704E+00  1.26950E+00 -1.69209E+01
  1.09463E+01  5.33660E+00 -1.35678E+01  9.32192E+00 -1.24247E+01 -1.72615E+01  1.35977E+01 -1.31656E+01
  7.58405E+00  9.28161E+00 -1.10652E+01  9.37126E-01 -4.40131E-01 -1.66155E+01  1.84005E+01 -4.94085E+00
  6.24953E+00  1.46388E+01 -1.16175E+01  3.60972E-01  7.14198E+00 -1.42657E+01  1.87278E+01  8.93576E+00
 -5.86651E+00  1.76820E+01 -1.08768E+01 -5.13777E+00  9.76064E+00 -5.83530E+00  7.61576E+00  1.44401E+01
 -1.35586E+01  1.19677E+01 -1.13728E+01 -9.56304E+00  9.62766E+00 -5.33508E+00  5.54176E-01  1.53175E+01
 -2.00322E+01  1.14769E+00 -3.01548E+00 -1.79723E+01  1.20733E+01 -1.90033E-01 -6.21126E+00  9.84293E+00
 -1.30932E+01 -9.37822E+00  6.57970E+00 -1.59277E+01  1.34417E+01  3.32339E+00 -5.87381E+00  8.55322E+00
 -7.39773E+00 -1.26103E+01  1.63063E+01 -1.01927E+01  1.08002E+01  1.40098E+01 -1.06842E+01  5.61839E+00
  9.58202E-01 -1.18158E+01  1.57415E+01  2.39174E+00  1.01762E+00  1.64766E+01 -1.26643E+01  2.60598E+00
  1.47945E+00 -9.66588E+00  1.18033E+01  7.28735E+00 -8.97335E+00  1.59169E+01 -1.55329E+01 -6.96325E+00
  6.85593E+00 -9.82559E+00  4.79318E+00  1.09805E+01 -1.48971E+01  5.06369E+00 -7.83799E+00 -1.38317E+01
  9.75237E+00 -7.23769E+00  2.60679E+00  8.88481E+00 -1.30873E+01 -9.70233E-01  3.23470E-01 -1.72242E+01
  1.61878E+01 -1.15779E+00 -1.47310E+00  1.16870E+01 -9.48185E+00 -7.34131E+00  1.06473E+01 -1.12677E+01
  1.27074E+01  8.66090E+00 -5.55401E+00  1.00851E+01 -5.79133E+00 -6.69741E+00  1.14457E+01 -4.80038E+00
  7.30808E+00  1.43830E+01 -1.29652E+01  8.17320E+00 -4.05834E+00 -1.07151E+01  1.17343E+01  1.81182E+00
 -3.96802E+00  1.46679E+01 -1.47772E+01 -2.02162E+00  8.41499E-01 -1.10021E+01  7.77911E+00  3.61323E+00
 -7.66789E+00  8.92744E+00 -1.22446E+01 -8.71739E+00  7.13921E+00 -1.24391E+01  8.28217E+00  7.27154E+00
 -1.08978E+01  4.04351E+00 -3.43512E+00 -1.43871E+01  1.36735E+01 -4.72634E+00  3.70301E+00  1.00218E+01
 -8.42404E+00 -8.42447E-02  2.77950E+00 -1.08610E+01  1.38136E+01  2.00859E+00 -5.27242E-01  1.32971E+01
 -1.01979E+01 -2.43338E+00  7.30265E+00 -8.55786E+00  9.60006E+00  1.05736E+01 -9.66961E+00  1.01250E+01
 -7.41535E+00 -7.32501E+00  7.63265E+00 -3.43239E+00  2.20301E+00  1.05184E+01 -1.22872E+01  4.10010E+00
 -5.15574E+00 -1.11254E+01  9.56837E+00 -2.41696E+00 -2.12768E+00  1.05541E+01 -1.29336E+01 -4.40321E+00
  3.73143E+00 -1.29577E+01  9.64969E+00  3.32397E+00 -5.41785E+00  6.38321E+00 -6.39449E+00 -8.15867E+00
  8.54659E+00 -8.47975E+00  8.79415E+00  7.00657E+00 -6.90919E+00  6.08289E+00 -3.06089E+00 -9.72446E+00
  1.27378E+01 -2.29597E+00  2.65191E+00  1.26248E+01 -9.90840E+00  1.26083E+00  2.04248E+00 -8.13869E+00
  9.07737E+00  4.31035E+00 -3.69591E+00  1.06084E+01 -1.00439E+01 -2.23749E+00  3.19423E+00 -7.90597E+00
  6.87925E+00  6.63858E+00 -9.40669E+00  7.67023E+00 -7.87007E+00 -9.37162E+00  8.05972E+00 -5.45489E+00
  1.87245E+00  8.17275E+00 -9.76457E+00  2.55661E-01 -1.22152E+00 -1.04671E+01  9.19535E+00 -2.09392E+00
  5.48205E-01  7.84899E+00 -8.55192E+00 -2.42947E+00  4.21588E+00 -1.04483E+01  1.06839E+01  4.24713E+00
 -4.50230E+00  8.26535E+00 -5.41131E+00 -6.32116E+00  8.31340E+00 -4.58229E+00  5.34884E+00  8.37845E+00
 -6.87378E+00  5.31441E+00 -3.55512E+00 -6.33146E+00  8.04379E+00 -1.67224E+00  1.19111E+00  1.02864E+01
 -1.06153E+01  1.23805E+00  1.36777E-01 -9.01210E+00  7.62367E+00  2.96107E+00 -5.04760E+00  7.68752E+00
 -8.04484E+00 -4.89818E+00  3.75470E+00 -7.14402E+00  5.44794E+00  3.95445E+00 -5.89616E+00  4.73626E+00
 -5.38533E+00 -7.74124E+00  8.05665E+00 -5.62052E+00  3.88490E+00  7.59659E+00 -7.87871E+00  1.02280E+00
  7.69417E-01 -8.82407E+00  8.91273E+00  7.59083E-01 -4.23256E-01  7.55522E+00 -6.16405E+00 -1.27438E+00
  2.91556E+00 -6.31677E+00  7.56234E+00  3.92339E+00 -4.06041E+00  7.94951E+00 -6.54417E+00 -4.55698E+00
  6.13831E+00 -4.50936E+00  3.40297E+00  7.74456E+00 -7.86894E+00  3.18697E+00 -2.62870E+00 -6.65513E+00
  5.80781E+00 -1.28710E+00  1.30238E-01  6.41482E+00 -7.65064E+00 -2.97193E-02 -9.02212E-02 -8.02006E+00
  7.30067E+00  8.73352E-01 -3.00084E+00  6.54294E+00 -6.36480E+00 -4.84011E+00  5.21895E+00 -6.09921E+00
  4.95917E+00  4.65783E+00 -4.54222E+00  3.41008E+00 -2.67698E+00 -5.31183E+00  6.13405E+00 -3.03935E+00
  3.33293E+00  6.30509E+00 -6.24027E+00  2.39817E+00 -5.19798E-01 -6.68014E+00  7.39388E+00  1.03743E+00
 -1.65521E+00  7.35366E+00 -6.18276E+00 -1.92922E+00  2.57865E+00 -4.81451E+00  4.38655E+00  3.40210E+00
 -3.74279E+00  4.84659E+00 -5.11455E+00 -3.65444E+00  3.97014E+00 -4.49052E+00  3.38198E+00  5.12232E+00
 -6.40069E+00  2.51098E+00 -1.88514E+00 -6.75031E+00  6.06432E+00 -9.86343E-01 -2.31488E-01  5.25812E+00
 -5.09475E+00 -1.10178E+00  1.16505E+00 -5.36888E+00  5.42802E+00  9.27715E-01 -1.32788E+00  5.13384E+00
 -4.89108E+00 -2.58103E+00  3.93459E+00 -4.83601E+00  4.48987E+00  4.61041E+00 -4.64887E+00  3.43751E+00
 -2.05091E+00 -4.62046E+00  4.77129E+00 -1.16905E+00  1.10189E+00  4.83243E+00 -4.64132E+00  1.27342E+00
 -9.46463E-01 -4.53818E+00  4.89764E+00 -4.53218E-02 -9.41326E-01  5.47629E+00 -5.57018E+00 -1.68755E+00
  2.32818E+00 -4.84470E+00  3.75079E+00  3.01751E+00 -3.52997E+00  2.99264E+00 -2.76226E+00 -3.55368E+00
  3.24721E+00 -2.68857E+00  2.42781E+00  3.19822E+00 -3.75267E+00  2.02142E+00 -1.61611E+00 -4.58210E+00
  5.05315E+00 -1.09457E+00  2.32520E-01  4.91257E+00 -4.44270E+00 -8.50812E-01  1.66207E+00 -4.00569E+00
  3.66345E+00  1.85894E+00 -1.66749E+00  3.32177E+00 -3.04473E+00 -1.64250E+00  2.07480E+00 -2.99765E+00
  3.10293E+00  2.76889E+00 -3.37517E+00  2.97231E+00 -2.30658E+00 -3.76121E+00  3.97651E+00 -1.27509E+00
  3.72998E-01  4.00451E+00 -3.75320E+00 -7.67978E-02  1.81269E-01 -3.30026E+00  2.96930E+00  2.51996E-01
 -4.63958E-01  3.03191E+00 -3.37908E+00 -8.09317E-01  1.27570E+00 -3.59577E+00  3.36922E+00  1.89263E+00
 -2.57330E+00  2.75611E+00 -2.04489E+00 -3.04887E+00  3.08828E+00 -1.45628E+00  1.04123E+00  2.77085E+00
 -2.45424E+00  7.91813E-01 -7.02415E-01 -2.44507E+00  2.74049E+00 -6.81958E-01  5.11142E-01  3.09772E+00
 -3.28650E+00  5.96713E-03  7.64341E-01 -3.22360E+00  2.92273E+00  1.48713E+00 -1.86981E+00  2.43354E+00
 -1.87545E+00 -1.87798E+00  1.71495E+00 -1.45171E+00  1.32211E+00  1.61613E+00 -1.69869E+00  1.43441E+00
 -1.52630E+00 -1.96207E+00  2.33751E+00 -1.33621E+00  8.15986E-01  2.69179E+00 -2.84323E+00  1.42691E-01
  4.44507E-01 -2.66660E+00  2.22126E+00  7.98132E-01 -8.99566E-01  1.74678E+00 -1.49062E+00 -8.26845E-01
  7.26262E-01 -1.52246E+00  1.70270E+00  7.69831E-01 -1.06112E+00  1.80956E+00 -1.68753E+00 -1.53796E+00
  1.98487E+00 -1.31139E+00  7.72204E-01  2.17726E+00 -2.04310E+00  2.35243E-01  1.24047E-01 -1.70333E+00
  1.37343E+00  2.11664E-01 -8.90458E-02  1.22416E+00 -1.30039E+00  4.76327E-02  6.06203E-03 -1.51759E+00
  1.70981E+00  3.21955E-01 -7.95714E-01  1.70914E+00 -1.43778E+00 -1.22380E+00  1.43210E+00 -9.67477E-01
  4.90112E-01  1.36659E+00 -1.11094E+00  2.02545E-01 -1.81794E-01 -8.37680E-01  7.18883E-01 -3.41164E-01
  4.92982E-01  8.31276E-01 -1.10623E+00  4.65998E-01 -2.01337E-01 -1.36457E+00  1.42500E+00  2.20409E-01
 -6.25367E-01  1.21731E+00 -8.24252E-01 -8.41356E-01  7.94437E-01 -4.29074E-01  2.06455E-01  5.54268E-01
 -2.95594E-01  2.25295E-01 -4.14785E-01 -1.94710E-01  3.23947E-01 -6.07442E-01  6.35714E-01  6.10832E-01
 -8.84231E-01  4.29421E-01 -5.85712E-02 -9.76342E-01  8.19504E-01  3.06040E-01 -4.92833E-01  4.84147E-01
 -1.38192E-01 -4.29580E-01  1.83771E-01  4.86587E-02 -2.22215E-03 -7.90802E-02  1.92594E-01  2.14406E-01
 -4.39452E-01  8.52502E-02  1.79627E-01 -5.08776E-01  3.52553E-01  4.41855E-01 -5.38214E-01  3.56157E-02
  2.80776E-01 -3.98095E-01  8.47420E-02  4.32492E-01 -3.46884E-01 -2.41709E-01  4.17081E-01 -8.36676E-02
 -2.00954E-01  3.67301E-01 -1.49466E-01 -3.45730E-01  2.77842E-01  8.36134E-02 -1.73838E-01  5.41550E-02
  1.73370E-01 -5.05305E-02 -2.28493E-01  2.47200E-01 -9.64042E-02 -5.10776E-01  6.37663E-01  2.21990E-01
 -5.56450E-01  5.35612E-01 -2.57953E-01 -7.48729E-01  7.24373E-01  4.70676E-02 -2.23340E-01  5.33552E-01
 -3.19875E-01 -1.97892E-01  2.22614E-02 -2.35935E-01  3.53950E-01 -1.59926E-01  1.98301E-01  6.22549E-01
 -8.95748E-01  2.27128E-02  3.17274E-01 -1.01859E+00  9.18235E-01  6.80450E-01 -9.13123E-01  6.44994E-01
 -3.38958E-01 -9.36502E-01  7.93284E-01 -1.46462E-01  1.37974E-01  6.22888E-01 -5.76185E-01  2.71656E-01
 -4.17676E-01 -7.22205E-01  1.00767E+00 -4.29502E-01  2.28547E-01  1.29358E+00 -1.43883E+00 -1.44099E-01
