 $NMID ID='MM_full_fit_new', FMTDAT='(8E13.5)'
 TRAMP=1., VOLUME=1. $END
  7.73270E+02  0.00000E+00  1.24760E+02 -6.45840E+02 -4.13490E+02 -8.92480E+01  5.76030E+01  2.65750E+02
  2.39810E+02 -1.45160E+02 -9.66230E+01 -2.17480E+02 -1.08510E+02 -2.81560E+00 -4.38260E+01 -3.80030E+01
 -1.19350E+02  2.77790E+01  3.19080E+01  1.15700E+02  9.51400E+01 -8.58680E+01 -1.36080E+02 -1.09150E+02
 -1.33690E+02  1.24320E+02  5.76170E+01  1.17060E+02  4.95000E+01  1.14300E+01  4.55930E+01  3.14200E+01
  8.31350E+01 -4.76750E+01 -4.23210E+01 -8.86160E+01 -5.81300E+01  5.20530E+01  8.29950E+01  1.85570E+01
 -4.67150E+00 -1.18360E+02 -1.29740E+02  9.60760E+00  1.93410E+01  1.07100E+02  7.36230E+01 -5.05780E+01
 -8.60250E+01 -5.76730E+01 -5.44570E+01  9.37760E+01  7.18330E+01  3.38030E+01 -1.28740E+01 -5.25300E+01
 -5.63220E+01  5.53480E+01  6.58690E+01  6.22200E+01  4.09270E+01 -5.87270E+01 -6.70730E+01 -1.95630E+00
  1.79810E+01  9.04940E+01  9.37480E+01 -9.92430E+00 -7.53050E+00 -6.12140E+01 -2.57250E+01  3.64690E+01
  7.18820E+01  2.59780E+01  5.22980E+01 -6.79490E+01 -1.89570E+01 -5.86890E+01 -2.37050E+01 -3.34880E+01
 -5.39510E+01 -2.46810E+01 -4.92880E+01  5.10020E+01  5.30300E+01  4.72510E+01  4.00050E+01 -6.58240E+01
 -7.25200E+01 -3.52830E+01 -2.03860E+01  6.64300E+01  6.20480E+01 -9.68460E+00 -3.76190E+01 -7.03590E+01
 -7.95810E+01  4.47470E+01  3.45600E+01  6.98310E+01  3.80770E+01 -2.61150E+01 -3.09780E+01  5.35760E-01
  3.04490E+01  4.56250E+01  6.16450E+01 -4.54530E+01 -4.45770E+01 -7.27080E+01 -7.23870E+01  3.00120E+01
  1.11390E+01  5.60960E+01  2.94980E+01 -1.24930E+00 -4.59750E+00 -7.87860E+00 -1.69970E+00  1.15460E+01
  1.09450E+01  6.69290E+00  1.23620E+01 -2.95620E+00  5.23710E+00 -1.54880E+01 -1.89020E+01 -1.16950E+01
 -1.95010E+01  2.06710E+01  1.41920E+01  2.58640E+01  2.12080E+01 -4.27260E-01  8.67810E+00 -2.87380E+00
  1.74120E+01 -4.39940E+00  6.48650E+00 -2.60470E+01 -2.36510E+01 -1.00980E+01 -3.17570E+00  2.19820E+01
  2.67390E+01 -4.79000E+00 -6.58330E+00 -3.11730E+01 -2.80470E+01  6.53110E+00  1.17100E+01  2.05250E+01
  1.63240E+01 -2.02420E+01 -2.43860E+01 -1.57360E+01 -1.20670E+01  2.22890E+01  1.99770E+01  2.64820E+00
 -7.08700E+00 -2.15270E+01 -2.32260E+01  1.19310E+01  1.40910E+01  2.00970E+01  1.39270E+01 -1.86460E+01
 -2.50410E+01 -1.07300E+01 -1.21580E+01  2.74510E+01  2.27210E+01  1.36160E+01  1.07860E+01 -1.40960E+01
 -6.59580E+00 -4.51830E+00  1.69210E+00  1.83500E+00 -1.18440E+00 -6.19920E+00 -9.21470E+00  2.67970E+00
  1.99130E+00  1.01640E+01  7.65010E+00  1.35830E-02  7.49750E-01 -1.96270E+00  4.08450E+00  1.45670E+00
  5.56360E+00 -7.29950E+00 -6.46850E+00 -8.70120E+00 -8.14000E+00  2.93740E+00 -4.36690E-02  2.88310E+00
 -5.13010E+00 -1.12500E+00 -7.62890E+00  1.11840E+01  1.08750E+01  1.61280E+01  2.06360E+01 -4.36340E+00
  3.13800E+00 -1.78630E+01 -1.03680E+01 -6.23920E+00 -4.42080E+00  3.51760E+00 -1.38380E-01  1.36180E+00
 -1.06810E-01  2.25770E+00  4.87830E+00  6.74610E-01  1.95020E+00 -7.23280E+00 -7.45830E+00 -3.09150E+00
 -1.76210E+00  6.19700E+00  6.54730E+00 -2.00630E+00 -4.64400E+00 -1.01050E+01 -1.42560E+01  2.56330E+00
 -3.70910E+00  1.43540E+01  8.47810E+00  9.62090E+00  1.08390E+01  4.03170E-01  7.03790E+00 -7.19590E+00
 -2.47440E+00 -8.49940E+00 -6.26160E+00  5.24470E-01  1.75080E+00  3.96260E+00  3.47430E+00 -3.43480E+00
 -3.18370E+00 -3.52680E+00 -2.10270E+00  1.39040E+00 -5.40440E-02 -6.69220E-01 -2.86970E+00  7.55250E-01
  2.29390E+00  3.71200E+00  4.76300E+00 -5.52500E+00 -8.65290E+00 -7.54750E+00 -1.08590E+01  9.11630E+00
  6.91940E+00  1.17490E+01  9.09610E+00 -4.81390E+00 -4.99380E+00 -5.00380E+00 -2.25910E+00  6.67140E+00
  7.47700E+00  1.35390E+00  7.21890E-01 -6.40550E+00 -4.47450E+00  7.85770E-01  2.71120E+00  2.93600E+00
  1.92980E+00 -4.06020E+00 -4.50090E+00 -9.69660E-01  1.72260E-01  4.23660E+00  3.47030E+00 -1.46420E+00
 -2.86320E+00 -2.45110E+00 -1.53880E+00  4.10560E+00  4.69880E+00  7.68220E-01 -2.34580E-01 -4.56350E+00
 -4.25570E+00  1.46280E+00  2.13100E+00  4.03610E+00  3.19120E+00 -1.72570E+00 -1.05040E+00 -1.09960E+00
  1.30980E+00  1.24570E+00  1.83780E+00 -2.30120E+00 -1.75580E+00 -9.61760E-01  1.95500E+00  1.70910E+00
  3.68170E+00 -4.77040E+00 -4.92310E+00 -6.30240E+00 -6.76260E+00  2.59690E+00  3.90500E-01  4.31130E+00
  1.03270E+00  3.38580E-02 -3.40800E-01  9.67320E-01  1.83230E+00 -1.23510E-01 -1.33320E+00 -2.76190E+00
 -3.71650E+00  2.10020E+00  2.33150E+00  3.65000E+00  2.59840E+00 -3.11690E+00 -4.66940E+00 -2.06010E+00
 -2.95820E+00  5.51270E+00  4.27370E+00  4.29420E+00  4.44870E+00 -1.42830E+00  1.38720E+00 -3.09020E+00
 -1.11340E+00 -3.14980E+00 -3.79460E+00 -6.87990E-01 -1.95610E+00  3.37560E+00  2.01550E+00  2.15640E+00
  8.38380E-01 -6.17130E-01 -4.60940E-01  1.27080E+00  2.44570E+00  1.61690E+00  2.55290E+00 -1.83710E+00
 -5.24680E-01 -1.93560E+00 -2.30820E-01  8.45930E-02  6.77840E-01 -1.17520E+00 -1.89950E+00 -1.38100E+00
 -1.96350E+00  2.59090E+00  3.25980E+00  3.11690E+00  4.79120E+00 -2.87860E+00 -1.12340E+00 -5.54310E+00
 -4.32570E+00 -5.31300E-01 -4.16310E-01  2.16570E+00  1.04650E+00 -1.14330E+00 -2.25220E+00 -1.43340E+00
 -1.92870E+00  1.89750E+00  9.48050E-01  1.38660E+00  3.10390E-01 -5.39730E-01 -5.03710E-01  2.65370E-01
  3.63230E-01  4.71470E-02 -7.44640E-01 -7.07100E-01 -1.29970E+00  1.04900E+00  6.84400E-01  1.35870E+00
  6.21320E-01 -3.88210E-01 -6.11840E-01  1.89220E-01  4.48940E-01  8.67390E-01  6.33280E-01 -4.42120E-01
 -6.41320E-01 -2.36380E-01 -2.71260E-01  7.75590E-01  2.65140E-01  6.10260E-01  6.85550E-01  7.67740E-01
  1.66150E+00 -5.12510E-01 -6.55120E-01 -2.26990E+00 -3.06920E+00  1.16140E+00  1.33560E+00  4.07200E+00
  4.42610E+00 -8.91140E-01 -6.31140E-01 -3.58880E+00 -2.33240E+00  1.36370E+00  2.56560E+00  1.86500E+00
  2.20880E+00 -2.89310E+00 -1.91500E+00 -2.21360E+00 -1.18730E+00  5.80660E-01 -1.65600E-01 -2.50420E-01
 -1.21380E+00  4.95380E-01  1.00430E+00  1.75180E+00  2.41530E+00 -1.52560E+00 -1.37800E+00 -3.07180E+00
 -2.96070E+00  5.76080E-01  4.08730E-04  1.91460E+00  8.07160E-01 -2.04420E-01 -6.55350E-01 -5.00830E-01
 -8.47560E-01  4.95740E-01 -3.71660E-01  1.09750E+00  9.23800E-01  1.37070E+00  2.10590E+00 -5.71550E-01
 -2.22170E-01 -2.60580E+00 -2.84480E+00 -2.15200E-01 -6.69360E-01  2.60450E+00  1.94290E+00  8.00570E-01
  5.40020E-01 -1.33240E+00 -1.06150E+00 -3.36620E-01 -5.66440E-01  8.33390E-01  2.79550E-01  9.92940E-01
  1.17740E+00  3.97240E-01  7.15910E-01 -1.20470E+00 -1.52500E+00 -7.03610E-01 -8.77200E-01  2.12690E+00
  2.39920E+00  1.38300E+00  1.66210E+00 -1.99470E+00 -1.37960E+00 -1.25040E+00 -5.26100E-01  1.16160E+00
  1.17200E+00  2.22490E-01  3.92090E-01 -7.05190E-01  4.15160E-01 -3.64600E-01  2.38850E-01 -1.51880E+00
 -1.97540E+00 -9.30510E-01 -1.02480E+00  1.98170E+00  2.17050E+00  5.38270E-01  7.85250E-02 -2.70310E+00
 -3.12610E+00 -1.64250E-02 -1.47970E-01  3.03370E+00  2.49650E+00  1.49070E-01 -9.15860E-05 -1.78640E+00
 -1.00800E+00  1.59050E-01  3.10520E-01  1.68200E-01 -6.18060E-01 -4.96420E-01 -6.41110E-01  1.21740E+00
  1.65690E+00  6.53270E-01  6.10530E-01 -2.01530E+00 -2.21880E+00 -6.41920E-01 -6.95120E-01  2.15450E+00
  1.93150E+00  6.46330E-01  6.12470E-01 -1.76960E+00 -1.60430E+00 -8.69870E-01 -1.37300E+00  1.08920E+00
  1.49730E-01  1.62880E+00  1.28070E+00  7.02050E-01  8.83920E-01 -6.51180E-01 -4.06430E-01 -4.80940E-01
 -1.68170E-01  7.11110E-01  1.01230E+00  3.71080E-01  7.78870E-01 -7.45890E-01 -1.98590E-03 -8.20870E-01
 -3.93520E-01 -6.93080E-01 -1.06570E+00 -1.21660E-01 -4.34710E-01  1.29120E+00  1.55880E+00  6.40870E-01
  9.04370E-01 -1.74120E+00 -1.61970E+00 -1.10710E+00 -9.84380E-01  1.25590E+00  9.59220E-01  5.03930E-01
 -4.78880E-02 -9.29980E-01 -1.05430E+00  3.42070E-01  2.83980E-01  1.03350E+00  6.39710E-01 -5.41470E-02
  3.39990E-02  1.10690E-01  9.25280E-01  2.42690E-01  8.03110E-01 -1.39660E+00 -1.33340E+00 -1.25600E+00
 -1.23160E+00  9.76290E-01  7.77690E-01  7.75280E-01  3.12710E-01 -9.10230E-01 -1.09360E+00 -1.62430E-01
 -1.90680E-01  9.87930E-01  6.44720E-01  6.47960E-02 -2.48600E-01 -4.02610E-01 -3.86770E-01  4.41160E-01
  3.28320E-01  3.32360E-01 -1.33980E-02 -1.44020E-01 -2.30830E-01  4.91000E-01  7.09640E-01  5.58860E-01
  7.49530E-01 -5.63610E-01 -3.74540E-01 -5.71670E-01 -2.39170E-01  4.75870E-01  7.97780E-01  1.34000E-01
  3.37280E-01 -9.68560E-01 -7.64090E-01 -5.46720E-01 -4.31300E-01  3.53390E-01  1.03870E-01 -1.74900E-02
 -4.89430E-01 -2.10900E-01 -5.25160E-01  6.52290E-01  4.41320E-01  6.96820E-01  4.84330E-01 -1.05420E-01
  1.80460E-02  3.32580E-02  5.29800E-01  1.91920E-01  5.44790E-01 -7.36720E-01 -6.71280E-01 -7.60760E-01
 -7.61120E-01  5.35480E-01  4.25870E-01  6.75190E-01  5.75740E-01 -2.51380E-01  2.57980E-02 -3.42550E-01
  1.09990E-01 -1.96910E-01 -1.33400E-02 -5.54430E-01 -5.84340E-01 -4.24480E-01 -6.50110E-01  8.92190E-02
 -5.21710E-01  3.09630E-01 -4.06800E-01  6.89180E-01  2.73750E-01  9.17680E-01  8.25440E-01  3.27210E-01
  6.18830E-01 -2.62700E-01  3.25730E-01 -4.73900E-01 -1.45000E-01 -6.38740E-01 -7.01810E-01 -7.78130E-02
 -1.20350E-01  6.80240E-01  6.39350E-01  6.59110E-02 -3.99050E-02 -5.25850E-01 -3.21430E-01  2.50750E-01
  5.96690E-01  1.35570E-01  1.10180E-01 -9.51240E-01 -1.07320E+00 -2.33790E-01 -2.82880E-01  8.23410E-01
  3.46390E-01  6.63780E-03 -5.90430E-01  1.37410E-02  3.94300E-02  1.18060E+00  1.39550E+00  1.23110E-01
  1.13510E-01 -1.19060E+00 -8.72440E-01  2.35540E-01  7.02080E-01  7.30870E-01  7.07980E-01 -9.36780E-01
 -8.69450E-01 -5.08390E-01 -8.62920E-03  7.57800E-01  8.28860E-01 -5.56070E-01 -8.58420E-01 -9.79190E-01
 -9.08590E-01  8.49810E-01  7.73940E-01  4.97430E-01 -5.21870E-02 -8.37720E-01 -9.72420E-01  4.58950E-01
  6.55010E-01  9.58690E-01  7.14670E-01 -7.79330E-01 -9.30660E-01 -3.78150E-01 -1.12500E-01  1.01830E+00
  8.86460E-01 -9.50830E-02 -3.94000E-01 -5.40960E-01 -1.98200E-01  8.42530E-01  1.26010E+00  8.43310E-02
  1.90670E-01 -1.34410E+00 -9.58750E-01 -2.50900E-01  4.76530E-03  3.08360E-01 -2.08400E-01 -5.54080E-01
