 $NMID ID='naa', FMTDAT='(8E13.5)'
 TRAMP=1., VOLUME=1. $END
  4.34403E+01 -5.08997E-01  1.38698E+01  2.41713E+01 -2.23367E+01  1.83713E+01 -1.56887E+01 -4.93018E+00
  1.45453E+01 -2.18121E+01  2.72259E+01 -5.06177E+00  5.60546E+00  2.50804E+01 -1.02370E+01  1.96371E+01
 -7.47450E-01 -3.77259E+00  4.50580E+00 -7.58500E+00  1.85825E+00  9.24566E+00 -2.90611E+00  1.83665E+01
 -3.64528E+00 -1.63095E+00  5.28078E+00 -9.96145E+00  3.85432E+00  1.46474E+01 -7.75410E+00  2.47617E+01
 -1.57021E+01  2.98379E+00 -1.35109E+01 -2.05790E+01  7.36170E+00 -1.07066E+01  1.58443E+01  2.19308E+01
 -9.24399E+00  2.19451E+01 -2.96288E+01 -6.79114E+00 -1.74355E+01 -1.99238E+01  1.38450E+01 -9.73760E+00
  1.82310E+01  9.92462E+00 -1.59639E+01  1.12245E+01 -2.80651E+01 -7.25264E+00 -1.09078E+00 -1.57810E+01
  1.71958E+01 -1.02641E+01  3.75898E+00  3.35828E+00 -1.93719E+01  7.06896E+00 -1.09118E+01 -1.25863E+01
  1.60997E+01 -2.08453E+01  1.36892E+01 -2.82796E+00 -5.88241E+00  1.25738E+01 -1.17596E+01  2.99131E+00
  6.19953E-01 -2.29122E+01  1.72761E+01 -1.98881E+01  1.29171E+01  1.19420E+01 -1.46734E+00  1.68963E+01
 -4.46246E+00 -7.01180E+00  1.33707E+00 -1.94664E+01  1.37787E+01 -2.45827E+00  1.36879E+01  1.84160E+01
 -2.58359E+00  5.67604E+00 -4.54718E+00 -1.34854E+01  8.92499E+00 -2.40816E+00  1.63191E+01  1.55978E+01
  2.18501E+00  1.52156E+01 -1.78332E+01 -3.23462E+00 -3.14784E+00 -1.33310E+01  2.46613E+01  4.25745E+00
  1.54591E+01  2.08389E+01 -1.69034E+01  1.71096E+01 -2.73552E+01 -3.96541E-02  1.45812E+00 -1.60329E+01
  2.63629E+01 -4.78248E+00  5.87168E+00  2.00108E+01 -2.18576E+01  2.16796E+01 -1.89563E+01  3.97933E-02
  1.72066E-01 -1.92664E+01  9.63418E+00 -7.06140E+00 -2.38521E+00  1.77169E+01 -1.21378E+01  1.02560E+01
 -5.81235E+00 -1.10246E+01 -1.98085E+00 -1.01261E+01 -2.64206E+00  6.11838E+00 -6.69010E+00  8.43525E+00
 -9.05663E+00 -1.36945E+01  2.16267E+00 -1.99452E+01  9.40346E+00  5.56080E+00 -1.30646E-01  1.68821E+01
 -1.49853E+01 -2.64566E+00 -1.54296E+01 -2.47418E+01  1.07452E+01 -1.91409E+01  2.63110E+01  8.77479E+00
  2.25154E+00  1.58687E+01 -2.23827E+01 -2.70942E+00 -1.20731E+01 -1.72909E+01  1.91285E+01 -1.56740E+01
  2.57595E+01  2.41008E+00 -3.34541E+00  1.38328E+01 -1.61260E+01  2.54126E+00  3.77327E+00 -1.06976E+01
  1.76965E+01 -9.58496E+00  8.55479E+00  6.19086E+00 -7.56843E+00  1.40716E+01 -3.19893E+00 -3.11691E+00
  1.36061E+01 -1.18755E+01  1.04617E+01  5.41393E+00 -3.61787E+00  1.88799E+01 -8.48761E+00  7.24342E+00
 -1.16564E+00 -1.50109E+01  1.20436E+01 -8.54786E+00  9.64902E+00  2.02886E+01 -6.27928E+00  2.07124E+01
 -1.37597E+01 -4.73642E+00 -5.77736E+00 -1.56671E+01  1.15345E+01  9.84360E-01  1.05155E+01  2.01648E+01
 -1.27425E+01  9.79492E+00 -1.87396E+01 -1.03617E+01  3.34514E-01 -7.91937E+00  1.41700E+01  5.33278E+00
  7.00027E-01  1.12495E+01 -2.19729E+01  1.95158E+00 -1.22650E+01 -1.16090E+01  1.38080E+01 -7.65805E+00
  1.06725E+01  5.05852E+00 -1.25468E+01  9.57828E+00 -2.01367E+01 -5.57818E-01 -1.02265E-02 -1.73125E+01
  1.73926E+01 -1.17213E+01  3.50927E+00  9.83334E+00 -1.37793E+01  1.14777E+01 -9.07821E+00 -7.92746E+00
  5.14892E+00 -2.07826E+01  1.19173E+01 -5.03272E+00  1.97932E+00  1.57807E+01 -8.13934E+00  3.83193E+00
 -2.37425E+00 -1.71263E+01  7.30966E+00 -1.13109E+01  1.06129E+01  9.10726E+00  1.17405E+00  1.29179E+01
 -1.00418E+01 -7.71636E+00  1.43971E-01 -1.70222E+01  1.60101E+01  2.30438E+00  1.14162E+01  1.57234E+01
 -7.91226E+00  6.52639E+00 -1.49165E+01 -9.45207E+00  6.79743E+00 -1.11228E+01  2.29065E+01  5.83762E+00
  3.84406E+00  1.51160E+01 -1.74392E+01  6.13967E+00 -9.84043E+00 -6.09222E+00  1.30353E+01 -9.20309E+00
  1.58785E+01  4.64131E+00 -7.28703E+00  1.62292E+01 -1.59752E+01  5.13410E+00  5.81175E-01 -9.69236E+00
  1.08738E+01 -6.96966E+00  2.86358E+00  1.02173E+01 -1.10242E+01  1.51305E+01 -9.81104E+00 -5.36204E+00
  4.65275E+00 -1.53092E+01  7.25066E+00  2.75045E+00 -2.43712E+00  1.66342E+01 -1.11183E+01  4.82318E+00
 -8.98325E+00 -1.63325E+01  5.99167E+00 -1.21715E+01  1.05861E+01  1.18609E+01 -3.82430E+00  1.35071E+01
 -1.50518E+01 -6.53171E+00 -7.31043E+00 -1.62775E+01  1.23354E+01 -4.89773E+00  1.28991E+01  1.11861E+01
 -9.92151E+00  6.74591E+00 -1.62900E+01 -9.05563E+00  3.02976E+00 -1.12594E+01  1.69517E+01 -1.84965E+00
  5.11955E+00  8.00080E+00 -1.47930E+01  5.16044E+00 -7.75184E+00 -8.75662E+00  1.35289E+01 -1.03374E+01
  1.20185E+01  2.19721E+00 -5.22442E+00  1.08060E+01 -1.13179E+01  2.82116E+00  2.14363E+00 -1.32714E+01
  1.47318E+01 -8.06663E+00  5.01124E+00  1.24564E+01 -8.87959E+00  1.28313E+01 -6.98106E+00 -6.40077E+00
  4.55688E+00 -1.58664E+01  1.25682E+01  1.08997E+00  3.82683E+00  1.94815E+01 -1.05671E+01  6.94998E+00
 -8.46828E+00 -1.38313E+01  5.41963E+00 -9.84159E+00  1.32854E+01  8.83163E+00  1.81288E+00  1.51598E+01
 -1.49331E+01 -2.32462E-01 -7.66015E+00 -1.20788E+01  1.08819E+01 -2.25934E+00  1.02417E+01  8.98550E+00
 -7.10319E+00  7.22482E+00 -1.48667E+01 -3.04722E+00  1.69596E+00 -8.82667E+00  1.45205E+01  4.30927E-01
 -1.17995E-01  9.33968E+00 -1.50663E+01  3.97178E+00 -6.92990E+00 -7.45254E+00  1.06961E+01 -1.05712E+01
  1.13766E+01  3.53630E+00 -7.72060E+00  1.44490E+01 -1.49060E+01  1.02177E+00 -2.66258E-01 -1.54086E+01
  1.15846E+01 -1.00493E+01  7.49338E+00  1.00167E+01 -6.75054E+00  1.50765E+01 -1.16095E+01 -5.63160E+00
  6.85148E-01 -1.72624E+01  1.02169E+01 -1.74900E+00  5.76444E+00  1.28070E+01 -6.01124E+00  6.08873E+00
 -9.43727E+00 -1.03273E+01  4.03483E+00 -9.70387E+00  1.18126E+01  7.01745E+00 -5.01206E-02  9.76141E+00
 -1.11746E+01 -3.13768E+00 -4.24939E+00 -1.02577E+01  1.24562E+01 -2.93929E+00  1.10718E+01  1.00177E+01
 -9.82123E+00  8.48667E+00 -1.43528E+01 -5.58354E+00  4.11211E+00 -1.07773E+01  1.60624E+01 -1.98311E+00
  4.72283E+00  1.10395E+01 -1.36733E+01  9.94836E+00 -9.72178E+00 -6.77303E+00  8.48339E+00 -1.22394E+01
  1.05981E+01  1.05028E+00 -1.86546E+00  1.24171E+01 -9.77205E+00  5.34859E+00 -2.95366E+00 -1.09295E+01
  8.31443E+00 -8.02037E+00  4.87325E+00  9.61032E+00 -6.06486E+00  1.02235E+01 -7.70747E+00 -5.84333E+00
  1.20573E+00 -1.31009E+01  1.05797E+01  7.70480E-01  4.07267E+00  1.52686E+01 -1.10191E+01  4.95727E+00
 -1.00814E+01 -1.26105E+01  5.47877E+00 -1.03961E+01  1.43334E+01  5.19757E+00  2.22342E+00  1.30071E+01
 -1.48672E+01  2.05314E+00 -8.21608E+00 -1.09114E+01  1.03147E+01 -6.56202E+00  1.10300E+01  4.88061E+00
 -4.25128E+00  8.28577E+00 -1.19222E+01  1.84343E-01  6.35119E-01 -8.71010E+00  1.16720E+01 -2.64177E+00
  1.41172E+00  7.98382E+00 -1.03466E+01  5.23618E+00 -5.08422E+00 -6.33235E+00  8.20545E+00 -9.92621E+00
  1.01147E+01  3.68976E+00 -4.37669E+00  1.42733E+01 -1.25889E+01  1.58727E+00 -2.40798E+00 -1.41005E+01
  9.81690E+00 -8.90926E+00  9.41692E+00  9.48164E+00 -4.08741E+00  1.44062E+01 -1.25731E+01 -3.09369E+00
 -2.45762E+00 -1.43250E+01  9.70492E+00 -2.85101E+00  7.26140E+00  9.87343E+00 -5.39488E+00  6.55814E+00
 -1.00522E+01 -6.22670E+00  2.51740E+00 -8.25989E+00  1.05040E+01  3.75594E+00 -3.50919E-01  8.05997E+00
 -1.06155E+01 -9.38405E-01 -3.84396E+00 -8.72234E+00  1.09787E+01 -4.75166E+00  9.67381E+00  7.86707E+00
 -8.52964E+00  9.72590E+00 -1.33193E+01 -3.65468E+00  2.15489E+00 -1.21623E+01  1.38029E+01 -4.59144E+00
  6.35143E+00  1.02608E+01 -9.72090E+00  1.11947E+01 -1.01051E+01 -5.20274E+00  4.09187E+00 -1.24656E+01
  9.55301E+00 -8.20831E-01  1.91386E+00  1.03620E+01 -6.66858E+00  5.31612E+00 -4.31584E+00 -8.00111E+00
  5.60818E+00 -6.26925E+00  5.32974E+00  7.40986E+00 -4.24566E+00  7.73554E+00 -7.30974E+00 -4.91157E+00
  1.09668E+00 -1.02901E+01  1.07269E+01  9.51929E-01  4.25547E+00  1.33084E+01 -1.13902E+01  5.68056E+00
 -1.07770E+01 -1.02832E+01  5.47713E+00 -1.09710E+01  1.45740E+01  2.70252E+00  2.81340E+00  1.31745E+01
 -1.41086E+01  5.66560E+00 -9.61487E+00 -9.26586E+00  7.51686E+00 -9.61682E+00  1.07187E+01  2.10753E+00
 -1.18496E+00  9.35452E+00 -9.79508E+00  2.97846E+00 -2.44792E+00 -7.69430E+00  7.34789E+00 -4.54180E+00
  2.39205E+00  5.60847E+00 -6.27896E+00  4.57248E+00 -4.22132E+00 -5.09828E+00  5.13627E+00 -8.00924E+00
  8.07520E+00  3.20772E+00 -2.64246E+00  1.13813E+01 -1.08049E+01  2.78392E-01 -2.88774E+00 -1.26217E+01
  9.42548E+00 -7.48437E+00  1.00438E+01  8.33333E+00 -3.58178E+00  1.27141E+01 -1.29407E+01 -2.13038E+00
 -2.72453E+00 -1.32302E+01  1.08806E+01 -4.45244E+00  8.61571E+00  8.54844E+00 -5.04653E+00  8.49349E+00
 -1.05325E+01 -3.36677E+00  1.26134E+00 -9.19060E+00  1.03553E+01  1.30919E-01  1.99454E+00  7.98217E+00
 -8.22004E+00  3.01721E+00 -4.79288E+00 -6.07043E+00  7.05859E+00 -6.08345E+00  8.35302E+00  4.96113E+00
 -4.65304E+00  9.37800E+00 -1.01563E+01 -1.12276E+00 -7.65649E-02 -9.65434E+00  9.53735E+00 -4.01265E+00
  5.61908E+00  8.37774E+00 -6.96448E+00  9.09803E+00 -8.96929E+00 -4.44282E+00  2.42506E+00 -1.00065E+01
  8.37214E+00  1.45129E-01  1.71483E+00  8.97453E+00 -7.31295E+00  3.93869E+00 -5.27389E+00 -7.55699E+00
  5.77378E+00 -6.29984E+00  6.83728E+00  6.05917E+00 -3.95629E+00  8.03432E+00 -9.15961E+00 -2.86541E+00
 -7.55911E-01 -1.02261E+01  1.04621E+01 -2.66735E+00  6.15612E+00  1.02573E+01 -8.90372E+00  7.83387E+00
 -1.08386E+01 -6.39420E+00  2.58740E+00 -1.13671E+01  1.22173E+01 -1.32765E+00  4.74937E+00  1.05297E+01
 -9.52099E+00  7.12015E+00 -8.64376E+00 -6.41942E+00  4.10468E+00 -9.06262E+00  8.56962E+00  5.63336E-01
  9.44624E-01  7.49578E+00 -6.59124E+00  2.60630E+00 -2.43290E+00 -6.02089E+00  5.68235E+00 -3.06843E+00
  2.69455E+00  5.36594E+00 -5.16034E+00  3.67108E+00 -4.46582E+00 -4.97369E+00  4.44561E+00 -6.90464E+00
  8.70840E+00  3.18360E+00 -1.11997E+00  1.07248E+01 -1.09603E+01  1.56583E+00 -4.70020E+00 -1.06957E+01
  8.60697E+00 -7.97983E+00  1.08476E+01  6.03814E+00 -2.26826E+00  1.25760E+01 -1.27626E+01  1.08765E+00
 -4.49099E+00 -1.14583E+01  9.04804E+00 -6.87668E+00  8.83826E+00  6.03036E+00 -2.96944E+00  9.57644E+00
 -9.61195E+00 -4.19309E-01 -1.37251E+00 -8.68797E+00  7.50680E+00 -2.45708E+00  3.18760E+00  6.12242E+00
