 $NMID ID='naag', FMTDAT='(8E13.5)'
 TRAMP=1., VOLUME=1. $END
  3.76853E+01 -5.34590E-02  1.49878E+01  2.90144E+01 -1.56799E+01  1.72025E+01 -1.65023E+01 -1.12989E+01
  7.97719E+00 -2.38592E+01  2.89500E+01 -4.32048E+00  1.50105E+01  1.98187E+01 -6.93681E+00  1.15403E+01
 -3.68991E+00 -5.26770E+00  8.39901E+00 -6.29541E+00  1.28820E+01  3.54922E+00  2.54533E+00  1.00440E+01
 -4.21187E+00 -2.79424E+00  1.16248E+01 -9.22509E+00  1.90502E+01  7.84742E+00  4.20876E+00  1.84995E+01
 -1.14022E+01  9.05981E+00 -8.78834E+00 -1.21181E+01  1.69794E+01 -1.63468E+01  2.75287E+01  1.08291E+01
  3.81215E+00  2.67462E+01 -1.60921E+01  1.08657E+01 -9.97164E+00 -1.18210E+01  1.46554E+01 -1.48672E+01
  2.48145E+01  1.03007E+01  1.68821E+00  2.48414E+01 -1.46021E+01  6.58155E+00 -2.87629E+00 -1.01693E+01
  1.48796E+01 -5.25665E+00  1.61995E+01  1.45802E+01 -5.56815E+00  2.08537E+01 -1.50486E+01 -1.17073E+00
  4.88879E+00 -1.27286E+01  1.88728E+01  2.69593E+00  1.00856E+01  2.01382E+01 -1.08827E+01  1.88636E+01
 -1.60412E+01 -4.16109E+00  6.64006E+00 -1.35551E+01  1.85678E+01  6.00247E+00  4.81567E+00  1.97640E+01
 -1.04238E+01  1.32297E+01 -1.01599E+01 -3.11976E+00  7.07525E+00 -6.43056E+00  1.14811E+01  1.12895E+01
 -5.57366E+00  1.58148E+01 -1.06845E+01  8.91272E-01  1.48254E+00 -6.34497E+00  1.30712E+01  3.44215E+00
  5.39845E+00  2.10954E+01 -1.79269E+01  1.61786E+01 -1.70656E+01 -1.00839E+01  8.47401E+00 -1.48754E+01
  2.06557E+01  6.71546E+00  5.48067E+00  2.72766E+01 -2.21979E+01  2.00638E+01 -2.31070E+01 -1.08570E+01
  6.06020E+00 -1.88181E+01  1.97812E+01  4.32794E+00  5.28884E+00  2.27746E+01 -1.64226E+01  1.75260E+01
 -1.86606E+01 -5.06090E+00  2.19991E+00 -1.13847E+01  9.51110E+00  5.91739E+00 -3.37838E+00  1.29486E+01
 -1.05089E+01  4.37682E+00 -4.92011E+00 -3.87892E+00  5.61319E+00  9.94442E-01 -2.04609E-01  1.47500E+01
 -1.71756E+01  8.35946E+00 -1.24326E+01 -1.05248E+01  6.59686E+00 -1.02524E+01  1.32391E+01  7.66047E+00
 -2.62322E+00  2.25466E+01 -2.50063E+01  1.00769E+01 -1.76130E+01 -1.66520E+01  9.17485E+00 -1.57030E+01
  1.54857E+01  7.63425E+00 -2.48328E+00  2.14277E+01 -2.27815E+01  9.48380E+00 -1.65800E+01 -1.46039E+01
  7.62578E+00 -1.31390E+01  9.94357E+00  8.20005E+00 -7.09608E+00  1.41972E+01 -1.71891E+01  1.58061E+00
 -8.18544E+00 -1.24305E+01  8.61209E+00 -5.64175E+00  3.01021E+00  1.25039E+01 -1.52254E+01  8.53690E+00
 -1.46783E+01 -8.66626E+00  6.89505E-01 -1.32751E+01  1.10552E+01  1.85239E-01 -7.99787E-01  1.57276E+01
 -1.99815E+01  5.85195E+00 -1.34829E+01 -1.46228E+01  5.84032E+00 -1.30723E+01  1.00972E+01  3.72527E+00
 -4.18768E+00  1.37809E+01 -1.91686E+01  1.56373E+00 -9.09369E+00 -1.64597E+01  9.55495E+00 -9.13686E+00
  5.83045E+00  8.42551E+00 -1.03420E+01  9.33773E+00 -1.68052E+01 -5.91336E+00 -2.26436E+00 -1.78697E+01
  1.38176E+01 -4.45433E+00  2.57818E+00  1.38864E+01 -1.66151E+01  6.60566E+00 -1.54226E+01 -1.25442E+01
  2.88209E+00 -1.86920E+01  1.57838E+01 -1.99680E+00  1.42622E+00  1.55941E+01 -1.84001E+01  4.67624E+00
 -1.25400E+01 -1.51991E+01  5.72191E+00 -1.56956E+01  1.25314E+01  1.91934E-01 -1.20425E+00  1.19125E+01
 -1.58724E+01 -8.70283E-02 -5.93019E+00 -1.57844E+01  9.27003E+00 -8.89837E+00  6.32945E+00  5.20872E+00
 -7.28859E+00  6.58299E+00 -1.29432E+01 -7.58165E+00  1.97244E+00 -1.70454E+01  1.42564E+01 -2.46197E+00
  1.83494E+00  1.16251E+01 -1.36959E+01  3.31530E+00 -1.11629E+01 -1.38111E+01  7.32611E+00 -1.78311E+01
  1.72340E+01  8.78406E-01  8.71368E-02  1.49221E+01 -1.63356E+01  1.36170E+00 -8.33174E+00 -1.63133E+01
  9.84808E+00 -1.51418E+01  1.52922E+01  2.81598E+00 -1.70976E+00  1.31923E+01 -1.49051E+01 -1.99079E+00
 -2.81527E+00 -1.64223E+01  1.19946E+01 -8.86635E+00  9.72241E+00  6.03982E+00 -5.46715E+00  8.63506E+00
 -1.18179E+01 -7.05709E+00  3.85002E+00 -1.60667E+01  1.47127E+01 -1.93817E+00  3.90395E+00  1.03547E+01
 -9.94296E+00  4.04138E+00 -8.50586E+00 -1.17865E+01  9.17775E+00 -1.50124E+01  1.63604E+01  3.24167E+00
 -3.83733E-01  1.34111E+01 -1.28841E+01  2.03380E-01 -4.66831E+00 -1.45647E+01  1.23542E+01 -1.20217E+01
  1.51722E+01  6.54123E+00 -3.42877E+00  1.35199E+01 -1.32328E+01 -3.29131E+00  2.82131E-02 -1.52114E+01
  1.39372E+01 -6.86916E+00  1.09768E+01  8.86879E+00 -6.03301E+00  1.05852E+01 -1.10915E+01 -6.74612E+00
  5.21663E+00 -1.41149E+01  1.45555E+01 -4.59422E-01  4.88415E+00  1.09297E+01 -8.71243E+00  5.62117E+00
 -7.24789E+00 -1.01717E+01  1.01643E+01 -1.18304E+01  1.45552E+01  5.75839E+00 -1.26771E+00  1.28608E+01
 -1.13347E+01  3.97399E-01 -2.99712E+00 -1.30032E+01  1.37165E+01 -8.91474E+00  1.36786E+01  1.00812E+01
 -5.57016E+00  1.37339E+01 -1.26074E+01 -3.49659E+00  8.64163E-01 -1.39008E+01  1.46940E+01 -5.11774E+00
  1.07059E+01  1.16409E+01 -7.60300E+00  1.18109E+01 -1.09697E+01 -6.16777E+00  4.91562E+00 -1.21055E+01
  1.34092E+01  4.14942E-01  4.80911E+00  1.16452E+01 -8.97769E+00  6.67298E+00 -6.77905E+00 -8.98586E+00
  9.69074E+00 -8.89558E+00  1.18017E+01  7.07075E+00 -2.34985E+00  1.20812E+01 -1.09814E+01  5.99752E-01
 -2.36931E+00 -1.19355E+01  1.36400E+01 -6.11386E+00  1.07809E+01  1.20538E+01 -7.52977E+00  1.26858E+01
 -1.22432E+01 -3.74357E+00  9.83748E-01 -1.28878E+01  1.43951E+01 -3.34305E+00  8.51407E+00  1.33526E+01
 -9.62971E+00  1.09501E+01 -1.05292E+01 -6.50471E+00  4.60350E+00 -1.06945E+01  1.22423E+01  1.38934E+00
  3.17558E+00  1.24619E+01 -1.07229E+01  5.98431E+00 -6.39891E+00 -9.55190E+00  9.44717E+00 -7.37200E+00
  1.00571E+01  7.70533E+00 -3.52514E+00  1.20872E+01 -1.22891E+01  3.98043E-01 -2.66933E+00 -1.24954E+01
  1.32610E+01 -5.20357E+00  8.96594E+00  1.21395E+01 -8.01013E+00  1.18359E+01 -1.24784E+01 -3.27990E+00
 -5.35633E-02 -1.25578E+01  1.31850E+01 -3.01369E+00  6.49300E+00  1.26389E+01 -9.69342E+00  8.92066E+00
 -9.22441E+00 -6.13213E+00  3.79700E+00 -9.13359E+00  1.02721E+01  1.87430E+00  7.79637E-01  1.14956E+01
 -1.12578E+01  3.18343E+00 -4.33993E+00 -1.02732E+01  9.65318E+00 -5.54778E+00  8.28192E+00  8.49082E+00
 -5.58081E+00  1.15608E+01 -1.35369E+01 -1.79830E+00 -1.39356E+00 -1.41133E+01  1.39531E+01 -4.32322E+00
  7.92424E+00  1.24259E+01 -8.72230E+00  1.14513E+01 -1.34052E+01 -3.90042E+00 -1.73165E-01 -1.37284E+01
  1.32566E+01 -3.13566E+00  5.69604E+00  1.18868E+01 -9.11215E+00  7.76096E+00 -8.72132E+00 -5.69159E+00
  3.07100E+00 -8.96489E+00  9.46444E+00  1.53273E+00 -2.68281E-01  1.02146E+01 -1.04250E+01  1.14086E+00
 -2.60064E+00 -9.93899E+00  9.22555E+00 -4.44748E+00  7.19754E+00  8.25285E+00 -6.46670E+00  1.04613E+01
 -1.30728E+01 -3.74358E+00  4.75806E-01 -1.42302E+01  1.38283E+01 -3.10112E+00  6.90035E+00  1.19493E+01
 -8.78210E+00  1.04286E+01 -1.28863E+01 -4.92611E+00  1.16960E+00 -1.37734E+01  1.30770E+01 -2.01651E+00
  4.50909E+00  1.11098E+01 -8.48558E+00  6.32691E+00 -7.62581E+00 -5.95796E+00  3.98625E+00 -8.61761E+00
  9.31882E+00  2.58450E+00 -1.56212E+00  9.65826E+00 -9.80443E+00 -5.35480E-01 -1.15781E+00 -9.93756E+00
  9.77647E+00 -3.92988E+00  7.31656E+00  8.86831E+00 -7.19580E+00  1.03981E+01 -1.26824E+01 -4.90468E+00
  1.71754E+00 -1.39731E+01  1.37588E+01 -2.53141E+00  6.99945E+00  1.16889E+01 -8.45294E+00  1.04093E+01
 -1.23443E+01 -5.16138E+00  2.05047E+00 -1.30546E+01  1.23884E+01 -1.18100E+00  4.08791E+00  1.01719E+01
 -7.37816E+00  5.84605E+00 -6.68794E+00 -5.46064E+00  4.54991E+00 -7.55159E+00  8.44245E+00  3.65504E+00
 -2.47149E+00  8.65504E+00 -8.47742E+00 -1.41621E+00  4.03885E-02 -8.94548E+00  9.84121E+00 -2.70940E+00
  6.47851E+00  9.72992E+00 -8.14487E+00  9.59513E+00 -1.13988E+01 -5.90476E+00  3.11780E+00 -1.26271E+01
  1.32629E+01 -1.01595E+00  5.99126E+00  1.21567E+01 -9.28051E+00  9.75534E+00 -1.13622E+01 -6.20963E+00
  3.64842E+00 -1.18517E+01  1.18514E+01  6.43659E-01  2.96394E+00  1.05922E+01 -8.14768E+00  5.60712E+00
 -6.55951E+00 -6.27337E+00  5.73935E+00 -7.18007E+00  8.38227E+00  5.03576E+00 -3.04742E+00  9.11744E+00
 -8.76037E+00 -8.08151E-01 -8.50999E-01 -8.64003E+00  9.50930E+00 -3.04325E+00  6.44049E+00  9.71090E+00
 -7.78230E+00  9.38506E+00 -1.04078E+01 -4.79776E+00  2.14945E+00 -1.05511E+01  1.10650E+01 -8.47488E-01
  4.86905E+00  1.08717E+01 -8.70499E+00  8.21713E+00 -9.14255E+00 -5.81480E+00  3.92691E+00 -8.75715E+00
  8.99402E+00  2.29410E+00  4.69424E-01  9.36168E+00 -8.50837E+00  3.30895E+00 -4.47992E+00 -7.33254E+00
  7.39276E+00 -4.89876E+00  6.58415E+00  7.59888E+00 -5.77255E+00  9.00140E+00 -1.01896E+01 -2.40826E+00
 -4.02308E-01 -1.03950E+01  1.11295E+01 -2.77502E+00  6.26301E+00  1.15222E+01 -9.28951E+00  1.00840E+01
 -1.18218E+01 -4.83909E+00  8.03665E-01 -1.14679E+01  1.10963E+01 -2.16186E+00  5.45243E+00  1.07666E+01
 -8.56046E+00  8.62994E+00 -9.45050E+00 -4.72224E+00  1.87523E+00 -8.02217E+00  7.05643E+00  7.22286E-01
  6.57643E-01  7.43373E+00 -7.27985E+00  2.70310E+00 -3.49668E+00 -6.08717E+00  5.80716E+00 -2.86474E+00
  3.39931E+00  6.79507E+00 -6.58090E+00  6.09339E+00 -8.67797E+00 -4.09696E+00  1.40665E+00 -9.72011E+00
  1.06215E+01 -3.44234E-01  2.94934E+00  1.18773E+01 -1.11591E+01  7.23288E+00 -1.07808E+01 -7.31036E+00
  2.76241E+00 -1.17990E+01  1.18108E+01 -3.65521E-01  3.24090E+00  1.21202E+01 -1.10110E+01  6.95593E+00
 -9.58145E+00 -7.22305E+00  3.02498E+00 -9.49284E+00  8.54763E+00  7.91676E-01  6.05317E-01  8.82944E+00
 -9.02755E+00  2.91239E+00 -4.84987E+00 -7.31455E+00  5.13853E+00 -4.77010E+00  4.34496E+00  4.60570E+00
 -4.50389E+00  5.88700E+00 -8.17911E+00 -2.64711E+00  4.25562E-02 -8.72216E+00  8.13418E+00 -1.14450E+00
  1.86977E+00  8.40834E+00 -8.62072E+00  4.38974E+00 -7.75017E+00 -6.53907E+00  3.08859E+00 -9.24645E+00
  9.11681E+00  9.67636E-01  9.55016E-02  9.56387E+00 -1.01601E+01  2.44416E+00 -5.73867E+00 -8.61470E+00
  5.43899E+00 -7.47056E+00  7.67588E+00  3.40827E+00 -2.66672E+00  8.69571E+00 -1.04336E+01 -7.52117E-01
 -2.56379E+00 -1.03096E+01  8.08279E+00 -4.87223E+00  5.78373E+00  6.31209E+00 -5.56728E+00  7.51664E+00
 -1.02356E+01 -3.57606E+00 -1.19966E-01 -1.12022E+01  9.55586E+00 -3.00545E+00  4.15039E+00  7.71351E+00
