 $NMID ID='pcho', FMTDAT='(8E13.5)'
 TRAMP=1., VOLUME=1. $END
  4.36523E+01 -4.74017E-01  3.41811E+01  2.12657E+01  1.88111E+01  3.07407E+01  5.19378E-01  3.39371E+01
 -1.67462E+01  2.19718E+01 -1.75936E+01  5.20026E+00 -1.22064E+01 -4.39713E+00 -1.35718E+00 -1.13702E+01
  1.21493E+01 -4.80461E+00  1.26999E+01  7.37626E+00  8.80999E+00  1.46272E+01 -3.85932E-01  2.16402E+01
 -1.35309E+01  1.69701E+01 -1.57676E+01  7.12003E+00 -1.52110E+01  1.47679E+00 -1.05011E+01 -5.24789E+00
 -2.23843E+00 -2.07190E+00 -4.56782E+00  4.69484E+00 -9.14804E+00  5.71545E+00 -1.66940E+01  6.18089E+00
 -2.59427E+01 -4.51143E+00 -2.20843E+01 -1.96337E+01 -1.26629E+01 -2.86814E+01  2.80493E+00 -3.51208E+01
  2.20371E+01 -2.70075E+01  2.84436E+01 -1.00562E+01  2.71075E+01  4.87175E+00  1.58980E+01  1.94810E+01
 -3.50724E+00  1.95820E+01 -1.37223E+01  8.33875E+00 -1.74603E+01 -4.79375E+00 -1.01473E+01 -2.12562E+01
  8.54549E+00 -2.54100E+01  2.19735E+01 -1.77768E+01  3.16518E+01 -5.46302E+00  3.09667E+01  1.41263E+01
  1.70916E+01  2.53135E+01  4.68751E+00  2.68866E+01 -8.16326E+00  2.36936E+01 -1.42695E+01  1.11818E+01
 -9.19154E+00  3.59176E+00 -5.66380E+00  2.10284E+00 -5.64797E-01  2.53509E+00 -2.40105E-01  1.03540E+01
 -9.01793E+00  1.24661E+01 -1.44750E+01  8.21424E+00 -1.97415E+01  2.20440E+00 -1.87404E+01 -1.05049E+01
 -7.36002E+00 -1.65032E+01  1.58539E+00 -1.44679E+01  1.01353E+01 -8.73143E+00  1.12480E+01  5.21184E+00
 -3.05434E-02  1.31115E+01 -1.11050E+01  1.20177E+01 -2.29138E+01  4.84810E+00 -2.67850E+01 -1.34249E+01
 -1.57834E+01 -2.81625E+01 -9.89566E-01 -3.45208E+01  1.84724E+01 -3.30056E+01  3.26904E+01 -1.65521E+01
  3.22904E+01  1.42111E+00  2.55693E+01  1.54263E+01  9.91743E+00  2.40394E+01 -5.36182E+00  1.77073E+01
 -9.87186E+00  7.33378E+00 -9.73405E+00 -2.74659E+00 -2.85146E-01 -1.09849E+01  1.08758E+01 -6.69669E+00
  1.38489E+01  1.12387E+00  1.40778E+01  9.51403E+00  5.91208E+00  1.76645E+01 -4.32836E+00  1.49412E+01
 -7.50095E+00  9.55361E+00 -9.13975E+00  3.83178E+00 -3.61578E+00 -1.96267E+00  3.08754E+00  2.37471E+00
  1.97087E+00  8.58187E+00 -1.45245E+00  1.38897E+01 -1.23574E+01  1.75337E+01 -2.41640E+01  8.96216E+00
 -2.67632E+01 -3.79888E+00 -2.43174E+01 -1.72316E+01 -1.09896E+01 -2.91475E+01  6.65657E+00 -2.72717E+01
  1.73346E+01 -1.78430E+01  2.30676E+01 -3.74313E+00  1.60087E+01  1.22704E+01  1.12955E+00  1.63078E+01
 -1.05018E+01  1.21552E+01 -1.96063E+01  8.25924E-01 -1.63863E+01 -1.57828E+01 -3.53555E+00 -2.33411E+01
  9.28012E+00 -2.37561E+01  2.27409E+01 -1.59611E+01  2.59977E+01 -1.15153E-01  1.97123E+01  1.02634E+01
  1.16459E+01  1.64052E+01  5.80793E-02  1.59281E+01 -4.52270E+00  7.33740E+00 -1.98468E+00  2.72063E+00
  1.01456E+00  3.61811E-01  7.10479E+00  2.56901E+00  6.54559E+00  1.11873E+01 -5.72281E-01  1.46297E+01
 -7.45699E+00  1.46984E+01 -1.63904E+01  9.32391E+00 -1.74209E+01 -3.03575E+00 -1.02563E+01 -1.03151E+01
 -1.73788E+00 -1.33224E+01  9.66166E+00 -9.26455E+00  1.29798E+01  3.71409E+00  6.57847E+00  1.31949E+01
 -3.53295E+00  1.85938E+01 -1.86532E+01  1.55667E+01 -2.67889E+01  9.33575E-01 -2.43448E+01 -1.34112E+01
 -1.54379E+01 -2.59268E+01  2.21310E+00 -3.04986E+01  1.65646E+01 -2.17520E+01  2.24925E+01 -9.73172E+00
  2.19115E+01  4.48741E+00  1.05533E+01  1.41323E+01 -9.19416E-01  1.21146E+01 -7.33070E+00  6.35565E+00
 -9.51277E+00 -3.47587E+00 -1.71459E+00 -1.12517E+01  6.97416E+00 -9.47645E+00  1.20855E+01 -4.90961E+00
  1.44131E+01  3.77350E+00  7.72877E+00  1.12484E+01  2.64057E-01  1.02207E+01 -3.96172E+00  7.10670E+00
 -5.90622E+00  3.69228E-01  5.70553E-01 -4.93524E+00  7.33999E+00 -1.54911E+00  1.00855E+01  4.20914E+00
  9.36495E+00  1.34965E+01 -1.10202E+00  2.06827E+01 -1.30957E+01  1.76438E+01 -2.13842E+01  9.83130E+00
 -2.51663E+01 -3.96592E+00 -1.69097E+01 -1.74954E+01 -3.92000E+00 -2.11881E+01  8.30505E+00 -1.86197E+01
  1.77016E+01 -7.30024E+00  1.49727E+01  7.00659E+00  5.52887E+00  1.40076E+01 -6.05107E+00  1.55161E+01
 -1.74743E+01  7.26430E+00 -1.82650E+01 -6.41693E+00 -1.19115E+01 -1.55660E+01 -1.47609E+00 -2.10717E+01
  1.14599E+01 -1.72261E+01  1.61937E+01 -6.68267E+00  1.49514E+01  1.67210E+00  9.41740E+00  8.78641E+00
  6.31417E-02  8.42402E+00 -2.99841E+00  2.15014E+00 -1.72354E+00 -2.11931E+00  2.66905E+00 -5.76821E+00
  1.01930E+01 -2.76815E+00  1.11056E+01  5.49364E+00  7.28617E+00  1.11888E+01  1.70049E-02  1.54497E+01
 -1.04591E+01  1.20689E+01 -1.39585E+01  2.23035E+00 -1.15717E+01 -6.01145E+00 -4.15253E+00 -1.29475E+01
  7.94896E+00 -1.14557E+01  1.38822E+01 -1.80823E+00  1.33909E+01  8.20420E+00  6.16278E+00  1.81566E+01
 -8.05259E+00  1.97009E+01 -1.81722E+01  1.15290E+01 -2.25950E+01  3.22824E-01 -1.93474E+01 -1.35230E+01
 -6.72069E+00 -2.08209E+01  4.95200E+00 -1.85568E+01  1.35286E+01 -1.16569E+01  1.57439E+01  5.04516E-01
  8.24656E+00  8.95262E+00 -6.30063E-02  9.77689E+00 -7.47797E+00  6.50171E+00 -1.04195E+01 -2.69576E+00
 -4.61397E+00 -9.65322E+00  2.17166E+00 -1.03884E+01  8.80956E+00 -7.81512E+00  1.18820E+01  5.32540E-01
  6.82022E+00  7.08786E+00  8.52638E-01  7.92360E+00 -5.06536E+00  5.71714E+00 -7.52019E+00 -2.14167E+00
 -1.76103E+00 -8.18854E+00  5.19055E+00 -8.17822E+00  1.20736E+01 -4.37582E+00  1.49470E+01  5.90643E+00
  8.40687E+00  1.49815E+01 -1.02250E+00  1.77514E+01 -1.17903E+01  1.54066E+01 -1.91106E+01  4.54607E+00
 -1.63137E+01 -7.35791E+00 -8.64396E+00 -1.44485E+01  2.81868E+00 -1.65348E+01  1.29611E+01 -8.84717E+00
  1.39653E+01  2.18546E+00  9.47276E+00  1.07212E+01 -5.74707E-01  1.56617E+01 -1.15272E+01  1.09097E+01
 -1.50870E+01  1.46909E+00 -1.36189E+01 -7.49585E+00 -5.82985E+00 -1.46876E+01  4.55761E+00 -1.31972E+01
  9.42110E+00 -6.76777E+00  1.04763E+01  3.36797E-01  5.58937E+00  7.13316E+00 -2.37401E+00  6.52655E+00
 -5.71842E+00  1.56039E+00 -5.98695E+00 -4.05132E+00 -7.60735E-01 -9.55560E+00  7.44208E+00 -7.83950E+00
  1.09879E+01 -1.60051E+00  1.10707E+01  5.55056E+00  5.00450E+00  1.26276E+01 -4.83864E+00  1.20906E+01
 -1.05407E+01  6.00944E+00 -1.25085E+01 -2.22112E+00 -7.34039E+00 -1.12785E+01  3.09012E+00 -1.28890E+01
  1.07362E+01 -8.03688E+00  1.51136E+01  5.81588E-01  1.17402E+01  1.16714E+01  1.47454E+00  1.63354E+01
 -8.02585E+00  1.42725E+01 -1.57172E+01  7.00504E+00 -1.60549E+01 -4.80419E+00 -8.55342E+00 -1.21651E+01
  9.58303E-02 -1.37740E+01  8.94169E+00 -9.90256E+00  1.18863E+01 -1.73199E-01  7.32127E+00  6.93915E+00
  8.42827E-01  9.74658E+00 -7.10225E+00  7.70770E+00 -1.04056E+01 -4.42967E-01 -6.84125E+00 -6.88319E+00
 -1.23689E+00 -9.88699E+00  6.37267E+00 -8.51310E+00  9.98076E+00 -9.69754E-01  6.99195E+00  5.34883E+00
  1.75240E+00  8.61134E+00 -5.85890E+00  7.54551E+00 -9.75855E+00 -7.09580E-03 -6.88824E+00 -6.86898E+00
 -1.11838E+00 -1.08756E+01  7.72730E+00 -1.02010E+01  1.32796E+01 -2.15429E+00  1.17367E+01  6.36729E+00
  6.17372E+00  1.27820E+01 -3.90143E+00  1.44618E+01 -1.19462E+01  7.80179E+00 -1.33145E+01 -9.93358E-01
 -9.97378E+00 -9.24969E+00 -6.57444E-01 -1.36501E+01  8.37629E+00 -9.53101E+00  1.19503E+01 -2.03472E+00
  1.09850E+01  6.55425E+00  3.22903E+00  1.26545E+01 -5.74133E+00  1.07763E+01 -1.06652E+01  4.96487E+00
 -1.17479E+01 -3.15217E+00 -5.86867E+00 -1.01239E+01  2.20283E+00 -1.00002E+01  7.41576E+00 -5.95453E+00
  9.60578E+00  1.02970E+00  5.05975E+00  7.79069E+00 -2.12177E+00  8.18481E+00 -7.11920E+00  4.77888E+00
 -9.53190E+00 -1.89016E+00 -5.23051E+00 -8.85311E+00  2.17550E+00 -9.75854E+00  7.95400E+00 -6.61216E+00
  1.13542E+01  4.21226E-01  7.74452E+00  8.46170E+00  1.84311E-01  1.08172E+01 -6.68721E+00  8.77068E+00
 -1.16933E+01  1.94079E+00 -9.53246E+00 -7.00600E+00 -2.48929E+00 -1.10636E+01  5.11428E+00 -1.06838E+01
  1.18115E+01 -4.71291E+00  1.16114E+01  4.67553E+00  5.84443E+00  1.03888E+01 -1.77722E+00  1.21355E+01
 -9.79051E+00  7.88513E+00 -1.17022E+01 -9.36951E-01 -7.89225E+00 -7.47532E+00 -1.28068E+00 -1.09600E+01
  6.97133E+00 -8.59700E+00  1.01677E+01 -9.85220E-01  7.93120E+00  5.47990E+00  2.41894E+00  9.82777E+00
 -5.63559E+00  8.72290E+00 -9.53986E+00  2.04092E+00 -8.36283E+00 -4.31781E+00 -3.62049E+00 -9.31035E+00
  4.36181E+00 -9.20118E+00  8.95131E+00 -3.24407E+00  8.74563E+00  3.12245E+00  4.67321E+00  8.79990E+00
 -3.33256E+00  9.68355E+00 -8.70763E+00  4.41275E+00 -9.58078E+00 -2.05654E+00 -6.25923E+00 -8.60224E+00
  1.78468E+00 -1.07435E+01  8.12021E+00 -6.44622E+00  1.04243E+01 -7.43687E-02  8.31978E+00  7.33738E+00
  6.85668E-01  1.09939E+01 -6.33757E+00  8.14962E+00 -1.00894E+01  2.44500E+00 -9.51794E+00 -5.35926E+00
 -2.80204E+00 -1.03087E+01  4.39052E+00 -9.01246E+00  9.24740E+00 -4.32526E+00  1.01479E+01  3.42603E+00
  4.55768E+00  9.31399E+00 -2.45143E+00  9.43882E+00 -8.08950E+00  5.89127E+00 -1.03093E+01 -1.52352E+00
 -5.91060E+00 -8.05625E+00  6.88634E-01 -9.43311E+00  6.85042E+00 -7.04593E+00  1.02287E+01 -1.35434E-01
  7.02130E+00  6.83528E+00  9.64693E-01  9.34056E+00 -5.55484E+00  8.13371E+00 -1.00049E+01  1.86937E+00
 -8.04477E+00 -5.36921E+00 -2.71132E+00 -8.91512E+00  3.95420E+00 -8.95383E+00  9.34522E+00 -3.53726E+00
  8.65965E+00  3.71691E+00  4.23164E+00  8.11816E+00 -2.32106E+00  9.36948E+00 -8.43499E+00  4.93290E+00
 -8.93792E+00 -2.10508E+00 -5.49218E+00 -7.14072E+00  7.63084E-01 -9.48813E+00  7.40076E+00 -6.05647E+00
  8.96973E+00  6.36436E-01  6.49628E+00  6.15526E+00  6.10907E-01  9.50593E+00 -6.46911E+00  7.07023E+00
 -9.08070E+00  7.66727E-01 -7.63011E+00 -5.21258E+00 -2.19447E+00 -9.62876E+00  5.30605E+00 -8.34463E+00
  9.06843E+00 -2.61523E+00  8.89142E+00  3.71932E+00  4.22044E+00  9.27209E+00 -3.45243E+00  9.41379E+00
 -8.31562E+00  4.66688E+00 -9.62348E+00 -1.63007E+00 -6.14167E+00 -8.11106E+00  1.21475E+00 -9.75878E+00
  6.81743E+00 -6.35825E+00  9.52701E+00 -6.17597E-01  7.47399E+00  6.31093E+00  9.15006E-01  9.20901E+00
 -4.88147E+00  7.22237E+00 -8.58340E+00  2.40393E+00 -7.82550E+00 -4.44655E+00 -2.23630E+00 -8.09316E+00
  3.35299E+00 -7.20252E+00  7.56562E+00 -3.25026E+00  7.68877E+00  3.33719E+00  2.82341E+00  7.39587E+00
