 $NMID ID='pcr', FMTDAT='(8E13.5)'
 TRAMP=1., VOLUME=1. $END
  3.17593E+01 -2.30537E-01  2.21027E+01  1.87142E+01  7.27971E+00  2.41678E+01 -7.74595E+00  2.28634E+01
 -1.84493E+01  8.74343E+00 -1.18462E+01 -4.97731E+00 -2.72993E+00 -6.22468E+00  4.30672E+00 -3.48155E+00
  6.66286E+00  7.83146E+00 -6.03051E+00  1.49185E+01 -1.73441E+01  7.48915E+00 -2.21911E+01 -3.56900E+00
 -1.92580E+01 -2.05490E+01 -3.67599E-01 -3.01110E+01  1.65637E+01 -2.26269E+01  2.57044E+01 -1.01626E+01
  2.62487E+01  8.44855E+00  1.09286E+01  2.01086E+01 -2.42210E+00  1.60205E+01 -8.74596E+00  8.86809E+00
 -8.84050E+00 -2.55227E+00  3.19327E+00 -6.84370E+00  9.78999E+00  2.54058E+00  7.33589E+00  1.11809E+01
 -8.60130E-01  1.95982E+01 -1.83449E+01  1.77094E+01 -2.68149E+01  1.10805E+00 -2.30817E+01 -1.39111E+01
 -1.19354E+01 -2.67210E+01  8.71480E+00 -2.76797E+01  2.03674E+01 -1.32516E+01  2.02271E+01 -1.22228E-01
  1.38515E+01  1.13274E+01 -6.67900E-01  1.28307E+01 -6.16766E+00  2.00435E+00 -1.67964E+00 -4.48178E+00
  5.41538E+00 -7.39166E+00  1.62869E+01 -9.55120E-01  1.49779E+01  1.49434E+01  2.54321E+00  2.26374E+01
 -1.14002E+01  2.31469E+01 -2.66304E+01  1.24054E+01 -2.74618E+01 -8.04905E+00 -1.57640E+01 -1.98378E+01
 -2.03999E+00 -2.40105E+01  1.33115E+01 -1.73660E+01  1.56287E+01 -1.76677E+00  7.69185E+00  5.24733E+00
  2.87625E-01  6.15779E+00 -7.09562E+00 -4.19891E-01 -2.10476E+00 -1.19148E+01  1.03678E+01 -1.17502E+01
  1.82706E+01 -4.31422E+00  2.22939E+01  9.29435E+00  1.18547E+01  2.49877E+01 -6.36062E+00  2.61916E+01
 -1.90651E+01  1.80938E+01 -2.67150E+01  3.10709E+00 -1.95778E+01 -1.41615E+01 -4.79562E+00 -1.76908E+01
  4.61388E+00 -1.33763E+01  1.01937E+01 -4.18285E+00  3.87954E+00  5.99234E+00 -6.52861E+00  3.07410E+00
 -8.64649E+00 -5.08665E+00 -5.82824E+00 -1.40652E+01  7.43455E+00 -2.01137E+01  2.17531E+01 -1.08347E+01
  2.44292E+01  3.99525E+00  1.96564E+01  1.82645E+01  3.52934E+00  2.78068E+01 -1.37244E+01  2.09320E+01
 -1.94294E+01  8.04769E+00 -1.83508E+01 -4.45868E+00 -7.29784E+00 -1.31851E+01  3.98454E+00 -7.81669E+00
  4.28865E+00  5.92150E-01  1.89725E-01  5.95457E+00 -9.97195E+00  6.57399E+00 -1.65651E+01 -5.42380E+00
 -9.84723E+00 -1.73235E+01  1.54278E+00 -2.24363E+01  1.72762E+01 -1.99626E+01  2.71301E+01 -3.76358E+00
  2.18511E+01  1.22720E+01  1.09266E+01  2.09691E+01 -4.58395E+00  2.19999E+01 -1.48801E+01  9.98457E+00
 -1.16905E+01 -1.37817E+00 -5.19432E+00 -5.86964E+00  3.58042E+00 -4.81364E+00  6.36971E+00  5.71108E+00
 -2.91759E+00  1.20211E+01 -1.23569E+01  9.10496E+00 -2.01224E+01  4.55264E-01 -1.88629E+01 -1.57242E+01
 -4.22828E+00 -2.49592E+01  1.03334E+01 -2.24930E+01  2.20926E+01 -1.28997E+01  2.40510E+01  4.56089E+00
  1.25718E+01  1.54340E+01  1.28044E+00  1.55340E+01 -7.57922E+00  1.01865E+01 -8.44569E+00 -1.19556E+00
  1.04193E+00 -5.41896E+00  7.10437E+00 -1.44207E-01  8.46600E+00  7.48941E+00  1.74742E+00  1.71908E+01
 -1.32884E+01  1.66053E+01 -2.18353E+01  5.06901E+00 -2.26904E+01 -8.42237E+00 -1.37336E+01 -2.23849E+01
  4.00005E+00 -2.46326E+01  1.52647E+01 -1.51417E+01  1.90542E+01 -3.47595E+00  1.40336E+01  8.96575E+00
  1.50312E+00  1.11225E+01 -4.16856E+00  4.01866E+00 -3.48017E+00 -2.42196E+00  3.09641E+00 -7.57358E+00
  1.33873E+01 -2.44002E+00  1.36908E+01  9.92025E+00  6.10087E+00  1.83169E+01 -6.80776E+00  2.20858E+01
 -2.14842E+01  1.35617E+01 -2.41428E+01 -2.76809E+00 -1.74648E+01 -1.48008E+01 -4.94783E+00 -2.17709E+01
  9.60963E+00 -1.67482E+01  1.31335E+01 -4.57884E+00  9.13710E+00  3.06275E+00  1.66421E+00  6.59700E+00
 -6.09432E+00  7.80954E-01 -2.87071E+00 -8.71317E+00  5.90828E+00 -1.06342E+01  1.47469E+01 -6.92626E+00
  2.03602E+01  5.43921E+00  1.27622E+01  1.92942E+01 -1.05739E+00  2.30154E+01 -1.42660E+01  1.91201E+01
 -2.32446E+01  5.76369E+00 -1.85995E+01 -9.33611E+00 -7.78928E+00 -1.47940E+01  2.32917E+00 -1.37819E+01
  9.02068E+00 -5.11392E+00  4.33280E+00  3.92505E+00 -3.48432E+00  3.39007E+00 -7.74630E+00 -1.76031E+00
 -7.15930E+00 -1.11775E+01  4.05294E+00 -1.74417E+01  1.60526E+01 -1.17408E+01  2.15087E+01 -7.25796E-01
  1.97165E+01  1.36050E+01  6.21892E+00  2.32886E+01 -8.28776E+00  1.98957E+01 -1.62429E+01  1.06938E+01
 -1.74451E+01 -1.90370E+00 -8.11638E+00 -1.05020E+01  1.26234E+00 -7.77511E+00  4.15882E+00 -1.77128E+00
  2.01199E+00  5.05545E+00 -7.46046E+00  6.62799E+00 -1.35705E+01 -2.37263E+00 -1.07274E+01 -1.22250E+01
 -2.16409E+00 -1.96269E+01  1.25707E+01 -1.90852E+01  2.20350E+01 -6.63482E+00  2.07936E+01  6.82933E+00
  1.28546E+01  1.73707E+01 -1.51710E+00  1.98397E+01 -1.10929E+01  1.08966E+01 -1.11621E+01  1.48833E+00
 -6.51969E+00 -5.07345E+00  2.38715E+00 -5.09051E+00  5.44489E+00  3.42715E+00 -2.98298E-01  9.20904E+00
 -8.31219E+00  9.69760E+00 -1.71956E+01  3.02529E+00 -1.73594E+01 -1.09096E+01 -7.17366E+00 -1.98572E+01
  5.35946E+00 -2.12182E+01  1.78913E+01 -1.40311E+01  2.09814E+01  8.78399E-01  1.35341E+01  1.10704E+01
  3.90146E+00  1.43139E+01 -5.84094E+00  1.04123E+01 -7.43331E+00  4.59815E-01 -9.29620E-01 -3.93504E+00
  4.85641E+00 -2.02123E+00  8.44386E+00  4.65754E+00  3.34072E+00  1.40349E+01 -8.54146E+00  1.48958E+01
 -1.71854E+01  7.75765E+00 -2.09329E+01 -4.12611E+00 -1.42567E+01 -1.75218E+01 -1.49911E-01 -2.11204E+01
  1.07637E+01 -1.58891E+01  1.68839E+01 -5.71130E+00  1.33707E+01  6.14977E+00  3.54264E+00  9.21429E+00
 -2.46330E+00  5.38709E+00 -4.25326E+00 -8.63300E-01  1.36244E+00 -6.73603E+00  1.01238E+01 -3.34311E+00
  1.21073E+01  5.62888E+00  8.13316E+00  1.43287E+01 -3.14327E+00  1.96972E+01 -1.61435E+01  1.37792E+01
 -2.05780E+01  1.47212E+00 -1.76620E+01 -1.03824E+01 -6.89530E+00 -1.85223E+01  5.83735E+00 -1.55344E+01
  1.06671E+01 -6.70048E+00  9.55279E+00  1.26471E+00  2.65182E+00  6.04058E+00 -4.48638E+00  1.66698E+00
 -3.31523E+00 -5.67522E+00  2.52140E+00 -9.29405E+00  1.13918E+01 -8.02153E+00  1.74284E+01  2.24241E+00
  1.29124E+01  1.38831E+01  2.81417E+00  1.95831E+01 -9.93450E+00  1.85419E+01 -1.90377E+01  7.62801E+00
 -1.71164E+01 -4.96673E+00 -9.60607E+00 -1.19263E+01  3.63267E-01 -1.30177E+01  7.16243E+00 -5.76445E+00
  4.58040E+00  1.82292E+00 -1.08126E+00  3.43043E+00 -6.55435E+00  3.89488E-01 -7.27389E+00 -8.30823E+00
  1.20778E+00 -1.42750E+01  1.10625E+01 -1.18751E+01  1.81898E+01 -3.86421E+00  1.83624E+01  9.26459E+00
  8.14398E+00  1.84749E+01 -3.78592E+00  1.82507E+01 -1.29502E+01  1.19068E+01 -1.55082E+01  3.92984E-01
 -8.61265E+00 -7.61337E+00 -9.52375E-01 -7.43766E+00  3.67349E+00 -3.22687E+00  2.82867E+00  3.82053E+00
 -4.97035E+00  5.95076E+00 -1.05739E+01  7.53575E-02 -1.07119E+01 -8.06180E+00 -4.42171E+00 -1.63061E+01
  8.18060E+00 -1.71802E+01  1.70781E+01 -8.59389E+00  1.89147E+01  2.59742E+00  1.33708E+01  1.35506E+01
  1.20752E+00  1.69742E+01 -7.57527E+00  1.12612E+01 -1.01335E+01  3.49221E+00 -6.92826E+00 -3.87119E+00
  9.73003E-01 -4.71777E+00  4.28756E+00  1.35889E+00  1.54709E+00  6.72391E+00 -5.17551E+00  9.31725E+00
 -1.38081E+01  4.47645E+00 -1.52403E+01 -6.59036E+00 -8.96443E+00 -1.51683E+01  1.61768E+00 -1.89564E+01
  1.35112E+01 -1.39685E+01  1.75568E+01 -2.20038E+00  1.36228E+01  7.29435E+00  5.54371E+00  1.24250E+01
 -3.80504E+00  9.89480E+00 -6.15384E+00  2.02851E+00 -2.38042E+00 -2.58056E+00  3.04417E+00 -2.99606E+00
  7.54403E+00  2.52699E+00  4.18608E+00  1.06681E+01 -4.57329E+00  1.28665E+01 -1.30078E+01  9.10239E+00
 -1.81953E+01 -8.96540E-01 -1.38517E+01 -1.27139E+01 -3.33227E+00 -1.74853E+01  6.95693E+00 -1.54828E+01
  1.40418E+01 -7.03041E+00  1.21782E+01  3.33885E+00  5.07325E+00  7.30687E+00 -1.05526E+00  5.96353E+00
 -4.16510E+00  3.09844E-01  8.40028E-02 -5.32710E+00  7.02499E+00 -3.77494E+00  1.03254E+01  2.36063E+00
  8.81323E+00  1.07192E+01 -3.30663E-01  1.65514E+01 -1.12139E+01  1.32517E+01 -1.69505E+01  4.42344E+00
 -1.65983E+01 -6.60622E+00 -8.03712E+00 -1.48066E+01  2.49473E+00 -1.39139E+01  8.29949E+00 -7.91824E+00
  9.06799E+00 -2.12154E-01  3.33832E+00  4.87327E+00 -2.75253E+00  2.25440E+00 -3.41249E+00 -3.16512E+00
  2.39987E-01 -7.74943E+00  8.28792E+00 -7.97774E+00  1.41097E+01 -2.42301E-01  1.23616E+01  9.22229E+00
  5.24401E+00  1.60254E+01 -6.15412E+00  1.68167E+01 -1.47096E+01  8.72515E+00 -1.52089E+01 -1.43918E+00
 -1.02798E+01 -9.13113E+00 -1.28799E+00 -1.14516E+01  5.09082E+00 -6.11471E+00  4.54559E+00  4.63384E-02
  5.71797E-01  3.13819E+00 -5.14038E+00  1.56392E+00 -6.62664E+00 -5.64764E+00 -9.39232E-01 -1.11102E+01
  7.02196E+00 -1.12581E+01  1.46697E+01 -5.62801E+00  1.61428E+01  5.45885E+00  9.22106E+00  1.39036E+01
 -3.98799E-01  1.60655E+01 -9.68562E+00  1.19469E+01 -1.30289E+01  2.30297E+00 -8.68120E+00 -4.93271E+00
 -2.51068E+00 -6.73453E+00  2.86520E+00 -3.90483E+00  2.96282E+00  2.43864E+00 -2.77654E+00  4.93053E+00
 -7.86350E+00  1.75418E+00 -9.90399E+00 -4.85176E+00 -5.54494E+00 -1.28010E+01  4.43057E+00 -1.47400E+01
  1.26207E+01 -9.54525E+00  1.63869E+01 -4.43589E-01  1.28537E+01  9.80385E+00  3.35061E+00  1.38680E+01
 -4.58498E+00  1.09826E+01 -8.65755E+00  4.68863E+00 -6.68817E+00 -2.45177E+00 -3.77001E-01 -4.00613E+00
  3.12707E+00 -2.34120E-01  2.56484E+00  4.64581E+00 -2.83536E+00  8.21310E+00 -1.03922E+01  5.10002E+00
 -1.28514E+01 -3.09579E+00 -9.60985E+00 -1.10726E+01 -1.02154E+00 -1.60429E+01  9.37829E+00 -1.30793E+01
  1.41257E+01 -4.42167E+00  1.28645E+01  4.20666E+00  6.38075E+00  1.01098E+01 -1.79523E+00  8.91686E+00
 -4.81683E+00  3.22657E+00 -3.18355E+00 -1.42225E+00  1.62150E+00 -3.19592E+00  6.14254E+00  9.74872E-01
  4.46734E+00  7.52929E+00 -1.59989E+00  1.07049E+01 -9.37942E+00  9.28495E+00 -1.49572E+01  1.39196E+00
 -1.27889E+01 -8.42184E+00 -5.39805E+00 -1.39505E+01  3.85990E+00 -1.41387E+01  1.09396E+01 -7.61163E+00
  1.06691E+01  8.97844E-01  5.92814E+00  5.50179E+00  7.96266E-02  5.82519E+00 -3.50913E+00  1.16456E+00
 -7.95771E-01 -3.75340E+00  4.41663E+00 -3.80286E+00  8.44049E+00  1.46083E-01  8.47951E+00  7.55635E+00
  1.67543E+00  1.31746E+01 -7.06754E+00  1.21407E+01 -1.34203E+01  6.11361E+00 -1.46684E+01 -3.50129E+00
