 $NMID ID='pe', FMTDAT='(8E13.5)'
 TRAMP=1., VOLUME=1. $END
  2.56933E+01 -2.43917E-01  1.88841E+01  1.31735E+01  1.03964E+01  1.76762E+01  1.65960E-01  2.10945E+01
 -1.13427E+01  1.40459E+01 -1.10849E+01  4.34467E+00 -9.46088E+00  5.92594E-01 -5.35274E+00 -4.44529E+00
  1.46410E+00 -7.40319E-01 -1.85024E+00  4.90091E+00 -5.38624E+00  4.33438E+00 -1.03350E+01  4.74092E+00
 -1.68827E+01 -3.77646E+00 -1.19528E+01 -1.44868E+01 -4.81214E+00 -1.87008E+01  5.66205E+00 -2.25280E+01
  1.91521E+01 -1.52303E+01  2.15512E+01 -2.66839E+00  2.04135E+01  6.43817E+00  1.34366E+01  1.72118E+01
  2.17111E-01  1.76742E+01 -5.11305E+00  1.19552E+01 -8.99052E+00  7.61114E+00 -8.00675E+00 -8.17213E-01
 -6.12347E-01 -1.32407E+00 -1.41234E-01  2.75965E+00 -2.20124E-01  4.50736E+00 -4.25707E+00  9.58492E+00
 -1.39154E+01  6.18282E+00 -1.57875E+01 -2.65211E+00 -1.55213E+01 -9.90309E+00 -9.26843E+00 -2.05578E+01
  4.90290E+00 -2.19984E+01  1.33366E+01 -1.59435E+01  2.04164E+01 -8.51590E+00  2.09541E+01  5.35727E+00
  1.15862E+01  1.26364E+01  4.95670E+00  1.36296E+01 -3.20307E+00  1.29908E+01 -7.19001E+00  4.58353E+00
 -2.58809E+00  6.70456E-01 -9.20573E-01  1.13732E+00  2.49462E+00  1.76372E+00  2.25176E+00  9.00953E+00
 -6.15494E+00  1.09872E+01 -1.13361E+01  7.55068E+00 -1.74646E+01  2.70115E+00 -1.86109E+01 -9.87553E+00
 -9.52272E+00 -1.79665E+01 -1.02750E+00 -2.02704E+01  1.06621E+01 -1.95281E+01  1.88288E+01 -8.49318E+00
  1.68159E+01  1.23888E+00  1.38814E+01  7.86534E+00  5.41812E+00  1.30784E+01 -2.26303E+00  8.43163E+00
 -2.08963E+00  4.19476E+00 -2.37343E+00  1.65838E+00  2.13192E+00 -9.43134E-01  5.74302E+00  4.98328E+00
  1.51585E+00  9.62668E+00 -2.43171E+00  1.16079E+01 -1.11277E+01  1.24342E+01 -1.86151E+01  3.29929E+00
 -1.71979E+01 -6.24543E+00 -1.39922E+01 -1.42743E+01 -3.53561E+00 -2.13072E+01  8.32752E+00 -1.73742E+01
  1.31744E+01 -1.06898E+01  1.67291E+01 -2.67096E+00  1.23049E+01  7.05826E+00  4.57153E+00  7.84096E+00
  1.51086E+00  6.58091E+00 -2.26886E+00  3.76298E+00  3.57087E-01 -1.61246E+00  5.45869E+00  8.40355E-01
  5.43930E+00  4.53128E+00  5.62303E+00  9.01263E+00 -1.04958E+00  1.51724E+01 -1.07116E+01  1.23649E+01
 -1.53609E+01  6.55521E+00 -1.93888E+01 -1.91980E+00 -1.49211E+01 -1.36304E+01 -4.96023E+00 -1.71613E+01
  2.69213E+00 -1.70636E+01  1.17883E+01 -1.25581E+01  1.35165E+01 -2.31865E+00  9.48763E+00  2.43225E+00
  6.43078E+00  5.51470E+00  1.83455E-01  5.31318E+00 -5.54229E-01 -3.89470E-01  3.11336E+00 -1.06580E+00
  4.92466E+00 -5.55017E-01  9.15973E+00  2.73876E+00  7.22690E+00  1.10664E+01 -2.61169E-02  1.38119E+01
 -6.35119E+00  1.41755E+01 -1.55211E+01  1.00719E+01 -1.82747E+01 -1.08849E+00 -1.43364E+01 -8.64764E+00
 -9.06063E+00 -1.49052E+01  1.58009E+00 -1.66941E+01  8.16106E+00 -1.02282E+01  9.42942E+00 -5.19243E+00
  9.57378E+00  8.16270E-01  3.67915E+00  4.36110E+00  4.55823E-01  9.47627E-01  1.16969E+00 -5.95567E-01
  1.90111E+00 -3.01488E+00  7.74681E+00 -3.10857E+00  1.02364E+01  3.64865E+00  7.87058E+00  8.53553E+00
  4.30216E+00  1.38908E+01 -5.52712E+00  1.60284E+01 -1.29582E+01  9.76083E+00 -1.56340E+01  3.21026E+00
 -1.61509E+01 -5.82678E+00 -8.60773E+00 -1.31559E+01 -1.01073E+00 -1.25672E+01  4.09659E+00 -1.09153E+01
  8.61086E+00 -5.23495E+00  5.76924E+00  7.30411E-01  2.54291E+00  6.19170E-01  9.90940E-01  6.50592E-01
 -9.04642E-01 -2.58464E+00  3.64726E+00 -5.79086E+00  7.97139E+00 -2.72275E+00  9.91645E+00  5.70571E-01
  1.12280E+01  7.35522E+00  4.88271E+00  1.41159E+01 -2.74088E+00  1.40251E+01 -9.18939E+00  1.22725E+01
 -1.54929E+01  5.12107E+00 -1.37380E+01 -4.14388E+00 -9.20020E+00 -8.30661E+00 -3.77552E+00 -1.15703E+01
  3.60635E+00 -9.26403E+00  4.66575E+00 -3.72505E+00  3.77251E+00 -1.69510E+00  2.11723E+00  8.95446E-01
 -1.85525E+00 -8.57396E-01 -1.35351E-01 -5.09654E+00  3.09188E+00 -5.35856E+00  6.64562E+00 -5.62764E+00
  1.19482E+01 -1.01418E+00  1.07603E+01  6.69866E+00  6.72434E+00  1.07978E+01  8.13986E-01  1.45610E+01
 -8.25147E+00  1.24315E+01 -1.17592E+01  5.45087E+00 -1.23245E+01  1.01549E-02 -1.00241E+01 -6.83032E+00
 -2.91724E+00 -8.92526E+00  5.86282E-01 -6.33444E+00  2.70223E+00 -4.60191E+00  2.97067E+00 -4.10250E-01
 -1.14992E+00  2.76607E-01 -1.77834E+00 -2.75389E+00 -1.17146E+00 -4.26137E+00  1.10687E+00 -7.60163E+00
  7.59182E+00 -6.85676E+00  1.03382E+01 -1.59426E+00  1.11057E+01  3.03325E+00  9.02065E+00  1.00576E+01
  1.21535E+00  1.31028E+01 -4.46984E+00  1.09094E+01 -9.24730E+00  7.87520E+00 -1.15039E+01  6.63940E-01
 -7.50697E+00 -4.37695E+00 -4.29911E+00 -5.41141E+00 -4.72130E-01 -6.04321E+00  2.27814E+00 -2.30535E+00
 -1.76557E-01  1.98856E-02 -1.36880E+00 -8.27277E-01 -2.93856E+00 -1.38752E+00 -3.34963E+00 -5.69724E+00
  1.52965E+00 -8.11492E+00  5.33018E+00 -6.69251E+00  9.40848E+00 -4.63218E+00  1.18637E+01  2.13250E+00
  8.06127E+00  7.90403E+00  3.84291E+00  1.01936E+01 -2.17194E+00  1.14444E+01 -7.82908E+00  6.95534E+00
 -7.87114E+00  1.85386E+00 -7.25122E+00 -1.38151E+00 -4.01059E+00 -4.80810E+00  9.31898E-02 -3.21045E+00
 -1.82566E-01 -1.01334E+00 -2.54822E-01 -3.23897E-01 -2.33423E+00  1.02856E+00 -4.93968E+00 -2.13244E+00
 -2.91453E+00 -5.55906E+00 -6.94836E-01 -7.06886E+00  3.85332E+00 -8.60115E+00  9.11635E+00 -4.78529E+00
  9.56467E+00  4.09710E-01  9.00284E+00  4.68916E+00  4.90457E+00  9.55901E+00 -1.37365E+00  9.08726E+00
 -4.16921E+00  6.46032E+00 -6.69265E+00  3.50704E+00 -5.82824E+00 -1.40103E+00 -2.28232E+00 -2.20949E+00
 -1.31826E+00 -1.56839E+00  2.48705E-01 -8.59211E-01 -7.77216E-01  1.85819E+00 -3.95619E+00  7.48913E-01
 -4.20012E+00 -1.64187E+00 -4.60346E+00 -3.93284E+00 -1.96055E+00 -7.95219E+00  3.36830E+00 -7.71142E+00
  6.18847E+00 -5.35251E+00  9.14066E+00 -2.04444E+00  8.57846E+00  4.01852E+00  4.32798E+00  6.63368E+00
  1.26580E+00  7.31195E+00 -3.11864E+00  6.62826E+00 -4.89323E+00  2.30981E+00 -3.30621E+00  2.58174E-01
 -2.67127E+00 -8.65687E-01 -2.13244E-01 -1.35653E+00  3.16088E-01  1.38816E+00 -1.95155E+00  1.81364E+00
 -2.87582E+00  1.28446E+00 -5.21819E+00  1.11900E-01 -5.24471E+00 -4.28820E+00 -1.92513E+00 -6.34327E+00
  7.16576E-01 -7.09146E+00  5.27120E+00 -6.53420E+00  7.76579E+00 -1.83515E+00  6.66502E+00  1.59674E+00
  5.47163E+00  4.53113E+00  1.34931E+00  6.56015E+00 -1.84687E+00  4.34078E+00 -2.31487E+00  2.73907E+00
 -3.10570E+00  8.08898E-01 -1.02824E+00 -1.06040E+00  4.36731E-01  6.38159E-01 -4.25555E-01  1.37096E+00
 -6.33445E-01  2.20110E+00 -3.37834E+00  2.82842E+00 -5.26048E+00 -2.44830E-01 -4.44112E+00 -2.57612E+00
 -3.70362E+00 -5.06574E+00  1.87770E-01 -7.19777E+00  3.86458E+00 -5.17454E+00  5.21806E+00 -3.05852E+00
  6.58675E+00  1.24887E-01  4.36083E+00  3.78251E+00  1.50948E+00  3.82583E+00  5.59929E-02  3.80200E+00
 -2.16861E+00  2.39472E+00 -1.32783E+00 -7.45513E-02  7.87694E-03  4.02582E-01  3.90350E-02  4.64103E-01
  1.00359E+00  1.52884E+00 -8.73174E-01  3.41607E+00 -3.12220E+00  2.17554E+00 -3.89965E+00  1.05379E+00
 -5.28706E+00 -1.33376E+00 -3.39784E+00 -4.75351E+00 -4.90473E-01 -5.07866E+00  1.58461E+00 -5.17660E+00
  4.70004E+00 -3.42131E+00  4.70698E+00  1.51141E-01  3.41405E+00  1.42513E+00  2.37501E+00  2.97584E+00
 -3.91151E-01  2.89634E+00 -7.48913E-01  8.67043E-01 -2.47832E-01  7.41493E-01 -2.18120E-01 -5.92373E-02
  1.47140E+00  3.67086E-01  8.33635E-01  2.45824E+00 -6.42787E-01  2.46060E+00 -1.62928E+00  2.87575E+00
 -4.18391E+00  1.79556E+00 -4.25946E+00 -1.28141E+00 -3.10250E+00 -2.59259E+00 -1.89406E+00 -4.40361E+00
  1.44329E+00 -4.59515E+00  2.82162E+00 -2.36988E+00  3.18151E+00 -1.26321E+00  3.40143E+00  9.57327E-01
  1.16087E+00  2.09123E+00  3.29756E-01  1.07942E+00  2.29724E-02  1.16007E+00 -5.31837E-01 -2.59720E-02
  1.11423E+00 -4.08491E-01  1.28285E+00  1.10454E+00  8.60253E-01  1.36507E+00  6.25784E-01  2.69665E+00
 -1.84860E+00  3.04810E+00 -2.90953E+00  1.23759E+00 -3.27571E+00  3.15012E-01 -3.56713E+00 -1.96823E+00
 -1.22676E+00 -3.48878E+00  2.34503E-01 -2.83779E+00  1.43625E+00 -2.78895E+00  2.83695E+00 -9.69587E-01
  1.67224E+00  6.12486E-01  1.16437E+00  4.67923E-01  5.99309E-01  1.17054E+00 -5.22266E-01  2.16884E-01
  5.92954E-01 -5.80804E-01  8.83761E-01  2.09658E-01  1.09731E+00  5.09512E-02  1.77219E+00  1.41588E+00
  1.35466E-01  2.54510E+00 -8.27080E-01  1.95263E+00 -1.78914E+00  2.06126E+00 -3.20540E+00  3.83625E-01
 -2.19178E+00 -1.37998E+00 -1.52804E+00 -1.65726E+00 -4.94189E-01 -2.67851E+00  1.36747E+00 -1.82171E+00
  1.10061E+00 -5.80672E-01  1.25868E+00 -4.57974E-01  9.93552E-01  7.20257E-01 -2.81118E-01  2.88017E-01
  3.15322E-01 -4.32457E-01  3.11695E-01 -3.48176E-02  5.70183E-01 -7.10361E-01  1.73083E+00  1.48476E-01
  9.57691E-01  1.27743E+00  6.47009E-01  1.25944E+00 -4.25816E-02  2.21014E+00 -1.74672E+00  1.50325E+00
 -1.59825E+00  2.89828E-01 -1.82997E+00 -3.62216E-02 -1.52084E+00 -1.51876E+00  5.81585E-02 -1.48171E+00
  9.40087E-02 -8.97723E-01  7.12419E-01 -1.04083E+00  9.26314E-01  1.73185E-01 -1.17348E-01  1.25571E-01
  2.70966E-01 -3.03008E-01 -2.27174E-02  8.96740E-02 -4.43215E-02 -8.13745E-01  1.09381E+00 -4.80252E-01
  7.59659E-01  2.45871E-01  1.01706E+00  1.67489E-01  9.29641E-01  1.36602E+00 -4.18525E-01  1.32825E+00
 -4.30680E-01  8.05164E-01 -1.08532E+00  9.38800E-01 -1.41315E+00 -3.54276E-01 -4.09701E-01 -6.01413E-01
 -5.68922E-01 -4.61075E-01  6.85088E-02 -9.94264E-01  5.51623E-01 -6.56539E-02 -1.83540E-01 -4.14975E-02
  2.54088E-01 -2.83244E-01 -1.05054E-01  2.52095E-01 -3.76459E-01 -5.78739E-01  5.04375E-01 -4.95455E-01
  1.93068E-01 -1.21896E-01  6.24950E-01 -5.04705E-01  9.50403E-01  4.75191E-01  8.82845E-02  5.87189E-01
  3.31031E-01  4.06968E-01 -2.20430E-01  9.52259E-01 -7.40381E-01  9.84703E-02 -1.13925E-01  9.57751E-04
 -5.56272E-01  1.10243E-01 -1.71173E-01 -5.73972E-01  2.74890E-01  7.94255E-02 -3.32419E-01  4.57012E-03
  1.69939E-01 -2.46926E-01 -1.01300E-01  3.41864E-01 -4.42509E-01 -3.32650E-01  2.42216E-01 -2.66455E-01
 -1.82823E-01  1.04327E-03  1.28503E-01 -5.60552E-01  5.14491E-01  1.18481E-01 -1.14401E-01  8.37652E-02
