 $NMID ID='scyllo', FMTDAT='(8E13.5)'
 TRAMP=1., VOLUME=1. $END
  3.77703E+01 -2.24927E-01  2.69739E+01  2.34949E+01  8.16579E+00  3.31883E+01 -1.41687E+01  3.35997E+01
 -3.39408E+01  1.56523E+01 -3.36468E+01 -9.09326E+00 -2.22976E+01 -2.61266E+01 -1.28257E+00 -3.68499E+01
  2.38926E+01 -2.78657E+01  3.34637E+01 -6.67665E+00  3.19343E+01  1.37250E+01  1.65513E+01  3.31312E+01
 -9.64341E+00  3.45272E+01 -2.65431E+01  2.07326E+01 -3.52457E+01  1.53821E+00 -2.86681E+01 -2.32400E+01
 -5.99294E+00 -3.44073E+01  1.43132E+01 -3.03622E+01  3.16574E+01 -1.66547E+01  3.53089E+01  9.16323E+00
  1.99640E+01  2.76072E+01  7.80256E-01  3.37435E+01 -2.19415E+01  2.86809E+01 -3.52411E+01  6.31934E+00
 -2.95774E+01 -1.55304E+01 -1.57623E+01 -3.02909E+01  8.05615E+00 -3.53060E+01  2.85531E+01 -2.01855E+01
  3.30175E+01  5.87681E-01  2.77151E+01  2.07584E+01  7.25343E+00  3.52978E+01 -1.66207E+01  2.97629E+01
 -2.96928E+01  1.42776E+01 -3.43412E+01 -7.07081E+00 -2.09950E+01 -2.87284E+01  1.82224E+00 -3.32428E+01
  2.03339E+01 -2.61723E+01  3.44080E+01 -8.05865E+00  3.05172E+01  1.69476E+01  1.29317E+01  3.00264E+01
 -6.83716E+00  3.28152E+01 -2.79740E+01  2.16681E+01 -3.40186E+01 -2.30190E+00 -2.47739E+01 -2.08237E+01
 -8.11911E+00 -3.29726E+01  1.63627E+01 -3.11260E+01  3.08918E+01 -1.23314E+01  3.14373E+01  7.49905E+00
  2.16025E+01  2.66903E+01 -1.88638E+00  3.46403E+01 -2.18266E+01  2.41124E+01 -3.16914E+01  7.30029E+00
 -3.10029E+01 -1.52629E+01 -1.26090E+01 -3.15971E+01  8.65940E+00 -3.07876E+01  2.55639E+01 -2.06735E+01
  3.45368E+01  9.73631E-01  2.43094E+01  2.26636E+01  5.99811E+00  3.11278E+01 -1.43263E+01  3.00322E+01
 -3.15821E+01  1.33666E+01 -3.09783E+01 -9.64675E+00 -1.92756E+01 -2.51465E+01  2.28681E-01 -3.36004E+01
  2.27877E+01 -2.49711E+01  3.13859E+01 -4.87446E+00  2.86059E+01  1.40903E+01  1.39515E+01  3.07491E+01
 -9.92963E+00  3.16176E+01 -2.55342E+01  1.80594E+01 -3.22212E+01 -1.75799E-01 -2.54529E+01 -2.21084E+01
 -4.44530E+00 -3.20768E+01  1.46426E+01 -2.73638E+01  2.94866E+01 -1.38507E+01  3.20702E+01  9.42480E+00
  1.75297E+01  2.63385E+01 -8.96518E-01  3.10290E+01 -2.10127E+01  2.52555E+01 -3.25757E+01  4.78919E+00
 -2.67993E+01 -1.55971E+01 -1.29913E+01 -2.84145E+01  8.51730E+00 -3.18508E+01  2.69462E+01 -1.77567E+01
  3.05052E+01  2.00564E+00  2.43144E+01  2.01103E+01  5.52255E+00  3.24088E+01 -1.63500E+01  2.69745E+01
 -2.80007E+01  1.17565E+01 -3.09004E+01 -7.80514E+00 -1.83576E+01 -2.68930E+01  2.90868E+00 -3.07042E+01
  1.98571E+01 -2.30089E+01  3.15239E+01 -6.05545E+00  2.75104E+01  1.64501E+01  1.07296E+01  2.82939E+01
 -7.73459E+00  2.95960E+01 -2.61362E+01  1.87546E+01 -3.12493E+01 -3.16768E+00 -2.19140E+01 -2.02958E+01
 -5.95482E+00 -3.02959E+01  1.58590E+01 -2.78374E+01  2.89202E+01 -1.03389E+01  2.85044E+01  8.34120E+00
  1.85259E+01  2.50478E+01 -2.74925E+00  3.15818E+01 -2.10540E+01  2.14465E+01 -2.92817E+01  5.19131E+00
 -2.75445E+01 -1.49475E+01 -1.06113E+01 -2.93283E+01  9.25504E+00 -2.80300E+01  2.41732E+01 -1.76459E+01
  3.13005E+01  2.02150E+00  2.16264E+01  2.15911E+01  4.13084E+00  2.88757E+01 -1.42519E+01  2.66137E+01
 -2.91289E+01  1.11813E+01 -2.81902E+01 -9.94496E+00 -1.64803E+01 -2.38984E+01  1.51200E+00 -3.03927E+01
  2.15276E+01 -2.20923E+01  2.90888E+01 -3.29741E+00  2.54050E+01  1.41468E+01  1.15304E+01  2.83148E+01
 -1.00410E+01  2.86226E+01 -2.42280E+01  1.55420E+01 -2.92173E+01 -1.58499E+00 -2.23348E+01 -2.08603E+01
 -3.04929E+00 -2.95627E+01  1.46325E+01 -2.44263E+01  2.72421E+01 -1.13044E+01  2.88282E+01  9.54564E+00
  1.51817E+01  2.48068E+01 -2.23540E+00  2.82701E+01 -1.99433E+01  2.20079E+01 -2.98068E+01  3.38062E+00
 -2.40160E+01 -1.53570E+01 -1.05129E+01 -2.63984E+01  8.80945E+00 -2.84719E+01  2.51528E+01 -1.53877E+01
  2.78835E+01  3.11485E+00  2.11274E+01  1.92554E+01  3.94267E+00  2.94947E+01 -1.58462E+01  2.41573E+01
 -2.61051E+01  9.50167E+00 -2.75717E+01 -8.30331E+00 -1.58142E+01 -2.49488E+01  3.75713E+00 -2.80350E+01
  1.91090E+01 -2.00356E+01  2.86484E+01 -4.27459E+00  2.45113E+01  1.57914E+01  8.72856E+00  2.63377E+01
 -8.32984E+00  2.64678E+01 -2.42209E+01  1.60088E+01 -2.83883E+01 -3.86270E+00 -1.91811E+01 -1.94756E+01
 -4.08044E+00 -2.76061E+01  1.52229E+01 -2.46298E+01  2.67609E+01 -8.48473E+00  2.56013E+01  8.85775E+00
  1.56847E+01  2.33037E+01 -3.46534E+00  2.85048E+01 -2.00232E+01  1.88481E+01 -2.68004E+01  3.39688E+00
 -2.42365E+01 -1.44732E+01 -8.73194E+00 -2.69455E+01  9.55776E+00 -2.52472E+01  2.26220E+01 -1.48805E+01
  2.81140E+01  2.89353E+00  1.89954E+01  2.03306E+01  2.54880E+00  2.64983E+01 -1.39575E+01  2.33728E+01
 -2.66288E+01  9.14603E+00 -2.53616E+01 -1.00157E+01 -1.39210E+01 -2.24361E+01  2.55632E+00 -2.72632E+01
  2.01430E+01 -1.93006E+01  2.66527E+01 -1.94342E+00  2.23601E+01  1.39294E+01  9.32512E+00  2.58603E+01
 -9.98513E+00  2.56255E+01 -2.26941E+01  1.32029E+01 -2.62682E+01 -2.69831E+00 -1.93701E+01 -1.95117E+01
 -1.82080E+00 -2.69477E+01  1.43335E+01 -2.15877E+01  2.49535E+01 -9.03218E+00  2.56517E+01  9.51955E+00
  1.29603E+01  2.30843E+01 -3.26249E+00  2.55131E+01 -1.87477E+01  1.89736E+01 -2.70037E+01  2.12219E+00
 -2.12835E+01 -1.48624E+01 -8.32692E+00 -2.42851E+01  8.92799E+00 -2.52185E+01  2.32341E+01 -1.31320E+01
  2.52174E+01  3.94357E+00  1.81734E+01  1.82208E+01  2.54490E+00  2.66050E+01 -1.51500E+01  2.13830E+01
 -2.40675E+01  7.51091E+00 -2.43894E+01 -8.57150E+00 -1.34182E+01 -2.29355E+01  4.38307E+00 -2.53146E+01
  1.81358E+01 -1.72692E+01  2.58192E+01 -2.73333E+00  2.15890E+01  1.49939E+01  6.93651E+00  2.42325E+01
 -8.64909E+00  2.34610E+01 -2.22558E+01  1.34698E+01 -2.55117E+01 -4.38477E+00 -1.66055E+01 -1.84232E+01
 -2.49400E+00 -2.49383E+01  1.44649E+01 -2.15610E+01  2.44893E+01 -6.79382E+00  2.27714E+01  9.08979E+00
  1.31006E+01  2.14859E+01 -4.02183E+00  2.54740E+01 -1.87960E+01  1.63653E+01 -2.42941E+01  1.90124E+00
 -2.11174E+01 -1.38501E+01 -7.00687E+00 -2.45109E+01  9.60797E+00 -2.24982E+01  2.09502E+01 -1.23863E+01
  2.50257E+01  3.57677E+00  1.64727E+01  1.89312E+01  1.23620E+00  2.40581E+01 -1.34669E+01  2.03369E+01
 -2.41262E+01  7.29680E+00 -2.25634E+01 -9.88954E+00 -1.16055E+01 -2.08156E+01  3.36292E+00 -2.42472E+01
  1.86666E+01 -1.66511E+01  2.41516E+01 -8.08195E-01  1.94939E+01  1.34769E+01  7.35717E+00  2.34181E+01
 -9.77562E+00  2.26935E+01 -2.09996E+01  1.10598E+01 -2.34093E+01 -3.53451E+00 -1.66010E+01 -1.80844E+01
 -7.69330E-01 -2.43031E+01  1.37971E+01 -1.88847E+01  2.26546E+01 -7.03867E+00  2.25953E+01  9.35112E+00
  1.08980E+01  2.12367E+01 -4.00724E+00  2.28039E+01 -1.74498E+01  1.61773E+01 -2.42253E+01  1.03515E+00
 -1.86525E+01 -1.41634E+01 -6.42690E+00 -2.21203E+01  8.87690E+00 -2.21281E+01  2.12434E+01 -1.10323E+01
  2.25676E+01  4.52122E+00  1.54675E+01  1.70420E+01  1.34656E+00  2.37848E+01 -1.43005E+01  1.87086E+01
 -2.19475E+01  5.77863E+00 -2.13813E+01 -8.62712E+00 -1.12088E+01 -2.08915E+01  4.80494E+00 -2.26112E+01
  1.69882E+01 -1.47257E+01  2.30697E+01 -1.43530E+00  1.88011E+01  1.40820E+01  5.35888E+00  2.20464E+01
 -8.72458E+00  2.06055E+01 -2.02714E+01  1.11640E+01 -2.26868E+01 -4.73969E+00 -1.42103E+01 -1.71979E+01
 -1.18392E+00 -2.23279E+01  1.36010E+01 -1.86738E+01  2.21719E+01 -5.28412E+00  2.00547E+01  9.07716E+00
  1.07844E+01  1.96256E+01 -4.41626E+00  2.25425E+01 -1.74283E+01  1.40343E+01 -2.18085E+01  6.84612E-01
 -1.82176E+01 -1.30977E+01 -5.46114E+00 -2.20777E+01  9.44576E+00 -1.98362E+01  1.91999E+01 -1.01643E+01
  2.20742E+01  4.07322E+00  1.41030E+01  1.74389E+01  1.73873E-01  2.16140E+01 -1.28102E+01  1.75261E+01
 -2.16625E+01  5.65442E+00 -1.98546E+01 -9.59450E+00 -9.53594E+00 -1.90924E+01  3.94315E+00 -2.13747E+01
  1.71329E+01 -1.41854E+01  2.16498E+01  1.18238E-01  1.68290E+01  1.28340E+01  5.63668E+00  2.10218E+01
 -9.43056E+00  1.98837E+01 -1.92069E+01  9.12492E+00 -2.06725E+01 -4.11830E+00 -1.40578E+01 -1.66058E+01
  1.01834E-01 -2.16916E+01  1.30729E+01 -1.63474E+01  2.03799E+01 -5.32034E+00  1.97031E+01  9.04997E+00
  9.01744E+00  1.93228E+01 -4.50161E+00  2.01835E+01 -1.60783E+01  1.36364E+01 -2.15237E+01  1.26342E-01
 -1.61636E+01 -1.33085E+01 -4.80197E+00 -1.99480E+01  8.67069E+00 -1.92336E+01  1.92300E+01 -9.11666E+00
  1.99856E+01  4.87676E+00  1.30190E+01  1.57575E+01  3.51562E-01  2.10717E+01 -1.33356E+01  1.61808E+01
 -1.98011E+01  4.29502E+00 -1.85731E+01 -8.49537E+00 -9.21003E+00 -1.88557E+01  5.04491E+00 -1.99820E+01
  1.57153E+01 -1.24154E+01  2.04315E+01 -3.75767E-01  1.61893E+01  1.30842E+01  3.99456E+00  1.98406E+01
 -8.59144E+00  1.79279E+01 -1.82977E+01  9.10548E+00 -1.99669E+01 -4.93758E+00 -1.20170E+01 -1.58534E+01
 -1.34074E-01 -1.98089E+01  1.26531E+01 -1.60006E+01  1.98659E+01 -3.96468E+00  1.74851E+01  8.86184E+00
  8.73929E+00  1.77568E+01 -4.65489E+00  1.97554E+01 -1.59727E+01  1.18836E+01 -1.93850E+01 -2.75519E-01
 -1.55562E+01 -1.22405E+01 -4.10634E+00 -1.96947E+01  9.10941E+00 -1.73026E+01  1.74128E+01 -8.21123E+00
  1.92918E+01  4.39051E+00  1.19180E+01  1.58958E+01 -6.59075E-01  1.92162E+01 -1.20204E+01  1.49535E+01
 -1.92746E+01  4.22855E+00 -1.72826E+01 -9.16146E+00 -7.71149E+00 -1.73171E+01  4.31630E+00 -1.86739E+01
  1.55733E+01 -1.19306E+01  1.92037E+01  8.47997E-01  1.43809E+01  1.20425E+01  4.16298E+00  1.87030E+01
 -8.97039E+00  1.72377E+01 -1.73713E+01  7.40516E+00 -1.80867E+01 -4.47816E+00 -1.17576E+01 -1.51025E+01
  7.97149E-01 -1.91637E+01  1.22090E+01 -1.39996E+01  1.81641E+01 -3.86694E+00  1.70089E+01  8.63432E+00
  7.33427E+00  1.73950E+01 -4.77850E+00  1.76881E+01 -1.46637E+01  1.13587E+01 -1.89405E+01 -6.04574E-01
 -1.38498E+01 -1.23410E+01 -3.43758E+00 -1.78097E+01  8.33058E+00 -1.65580E+01  1.72360E+01 -7.40193E+00
  1.75166E+01  5.04191E+00  1.08303E+01  1.44066E+01 -4.43932E-01  1.84979E+01 -1.22916E+01  1.38340E+01
 -1.76762E+01  3.04714E+00 -1.59818E+01 -8.20471E+00 -7.43656E+00 -1.68606E+01  5.12366E+00 -1.74736E+01
  1.43646E+01 -1.03433E+01  1.79330E+01  4.59187E-01  1.37835E+01  1.20274E+01  2.83808E+00  1.76670E+01
