 $NMID ID='tau', FMTDAT='(8E13.5)'
 TRAMP=1., VOLUME=1. $END
  2.57663E+01 -1.45297E-01  1.74858E+01  1.61232E+01  5.26143E+00  2.14704E+01 -9.15202E+00  2.25045E+01
 -2.29971E+01  9.97773E+00 -2.13484E+01 -6.72862E+00 -1.39582E+01 -1.64639E+01 -7.26195E-01 -2.38128E+01
  1.60410E+01 -1.70354E+01  2.02258E+01 -2.97117E+00  1.88841E+01  8.23384E+00  9.53895E+00  2.03159E+01
 -7.06383E+00  1.96525E+01 -1.48597E+01  1.03592E+01 -1.90813E+01  6.87721E-01 -1.50225E+01 -1.34681E+01
 -1.26632E+00 -1.76472E+01  7.27424E+00 -1.37141E+01  1.51485E+01 -7.73285E+00  1.61379E+01  5.67239E+00
  6.70279E+00  1.23275E+01 -3.07678E-02  1.27567E+01 -8.96416E+00  1.11693E+01 -1.33687E+01  5.84047E-01
 -8.17206E+00 -5.96324E+00 -4.68087E+00 -8.66771E+00  2.97158E+00 -1.06593E+01  8.46873E+00 -3.60067E+00
  6.07967E+00  9.38996E-01  5.79127E+00  3.59432E+00  7.19478E-01  7.29556E+00 -3.76537E+00  3.02106E+00
 -2.08488E+00  1.10064E+00 -3.67148E+00  1.77970E-01 -1.07477E+00 -3.12950E+00  1.28496E+00  1.10015E-01
 -1.57525E+00  1.84708E-01 -7.61518E-02 -1.07207E+00 -1.53433E+00  3.63920E-01 -2.01191E+00 -3.80048E+00
  2.94587E+00 -3.76193E+00  3.27192E+00 -1.21791E+00  5.52520E+00 -5.17672E-01  5.55300E+00  5.89914E+00
 -1.08877E+00  7.66135E+00 -4.00468E+00  5.64579E+00 -8.73826E+00  3.86133E+00 -1.03169E+01 -4.92192E+00
 -3.57654E+00 -9.74756E+00  1.36152E+00 -1.02335E+01  9.27141E+00 -9.32712E+00  1.41332E+01  6.16675E-01
  9.43716E+00  8.53681E+00  4.22264E+00  1.28285E+01 -6.20626E+00  1.49125E+01 -1.50737E+01  5.93522E+00
 -1.42903E+01 -3.76689E+00 -1.11197E+01 -1.19134E+01 -3.66229E-02 -1.84226E+01  1.21787E+01 -1.27077E+01
  1.61571E+01 -3.49134E+00  1.70905E+01  7.17829E+00  7.83080E+00  1.82785E+01 -5.82191E+00  1.74563E+01
 -1.40049E+01  1.12041E+01 -2.00930E+01  3.49040E-01 -1.49170E+01 -1.40906E+01 -2.40686E+00 -1.85233E+01
  8.12481E+00 -1.70882E+01  1.89999E+01 -8.65767E+00  1.91914E+01  6.80571E+00  1.02532E+01  1.54136E+01
 -3.36364E-02  1.94044E+01 -1.39929E+01  1.54496E+01 -1.94304E+01  1.62575E+00 -1.55746E+01 -8.96373E+00
 -8.05575E+00 -1.75458E+01  6.48121E+00 -1.89206E+01  1.56877E+01 -8.92177E+00  1.70586E+01  1.02913E+00
  1.39920E+01  1.22149E+01  1.39994E+00  1.83557E+01 -9.24431E+00  1.32450E+01 -1.46362E+01  6.16589E+00
 -1.64026E+01 -5.14543E+00 -7.52881E+00 -1.43215E+01  2.12495E+00 -1.37929E+01  9.44567E+00 -1.07841E+01
  1.51079E+01 -1.52838E+00  1.05052E+01  8.41452E+00  3.61453E+00  1.10080E+01 -3.38463E+00  1.19676E+01
 -1.11142E+01  6.00707E+00 -1.00705E+01 -2.65602E+00 -6.58123E+00 -6.34875E+00 -1.58375E+00 -1.00589E+01
  6.18416E+00 -7.41309E+00  7.11543E+00 -1.22272E+00  6.47216E+00  1.71467E+00  4.10759E+00  6.39544E+00
 -2.17604E+00  6.02228E+00 -3.28169E+00  2.35792E+00 -4.09330E+00  1.24862E+00 -3.87192E+00 -2.75942E+00
  3.78842E-01 -3.07531E+00  3.21151E-01 -9.91363E-01  9.86176E-01 -1.71595E+00  1.63122E+00  7.07046E-01
 -1.09213E+00  2.56767E-01  5.47444E-01 -1.70062E+00  1.18828E+00 -7.65605E-02  1.14396E+00 -1.01338E+00
  3.58425E+00  9.56337E-01  9.45359E-01  4.10503E+00 -1.27565E+00  2.98719E+00 -2.85965E+00  3.42988E+00
 -6.42591E+00  1.63101E-01 -4.07005E+00 -4.80319E+00 -9.61705E-01 -5.44589E+00  2.40836E+00 -6.82713E+00
  8.06261E+00 -3.34906E+00  7.41466E+00  3.10177E+00  4.78805E+00  6.06601E+00  4.27068E-01  9.65298E+00
 -7.40886E+00  7.47331E+00 -9.43883E+00  7.24023E-01 -8.79553E+00 -4.16473E+00 -4.90967E+00 -1.05274E+01
  4.24807E+00 -1.09867E+01  9.05483E+00 -5.54911E+00  1.14412E+01  9.86113E-03  9.63490E+00  8.75384E+00
  6.97943E-01  1.24953E+01 -6.01970E+00  9.82174E+00 -1.16100E+01  5.29131E+00 -1.30482E+01 -4.56600E+00
 -6.03773E+00 -1.12666E+01  1.01964E+00 -1.21269E+01  9.01514E+00 -1.01933E+01  1.40016E+01 -9.64571E-01
  1.02124E+01  7.47872E+00  4.58878E+00  1.16823E+01 -4.27943E+00  1.32614E+01 -1.21407E+01  6.31801E+00
 -1.20371E+01 -2.14097E+00 -9.25624E+00 -8.58973E+00 -1.29757E+00 -1.36586E+01  8.00861E+00 -1.00529E+01
  1.10874E+01 -3.27521E+00  1.17718E+01  3.77428E+00  6.20030E+00  1.14032E+01 -2.82361E+00  1.12863E+01
 -7.81184E+00  7.34277E+00 -1.16472E+01  1.36307E+00 -9.21155E+00 -7.32172E+00 -1.95638E+00 -9.95331E+00
  3.33077E+00 -9.15021E+00  9.23326E+00 -5.43596E+00  9.79082E+00  2.72141E+00  5.13197E+00  6.77536E+00
  9.78329E-01  8.56082E+00 -5.54325E+00  7.52580E+00 -8.20206E+00  1.07223E+00 -6.13313E+00 -2.95747E+00
 -3.95666E+00 -6.19687E+00  1.86022E+00 -7.44523E+00  5.35271E+00 -3.15911E+00  5.15253E+00 -2.55498E-01
  5.02893E+00  3.15731E+00  7.17383E-01  5.73001E+00 -2.42614E+00  3.32320E+00 -3.00269E+00  2.00248E+00
 -4.33835E+00 -5.98662E-01 -1.63075E+00 -3.38117E+00  4.48063E-01 -2.03467E+00  7.71536E-01 -2.06110E+00
  2.62058E+00 -6.71229E-01  9.96352E-01  1.46783E+00  5.49371E-02  2.11573E-01  5.90042E-01  8.57729E-01
 -8.80005E-01  4.41743E-01  5.06527E-01 -7.38997E-01  8.08126E-01  1.15541E+00 -5.96375E-01  7.53340E-01
 -1.04314E-03  8.84815E-01 -1.93933E+00  1.38280E+00 -2.39458E+00 -1.37286E+00 -6.38543E-01 -1.84453E+00
 -4.22761E-01 -2.49850E+00  2.47565E+00 -3.00692E+00  3.81320E+00  2.77197E-01  2.49319E+00  1.76772E+00
  2.02749E+00  3.51740E+00 -1.70304E+00  4.82990E+00 -4.27766E+00  1.74234E+00 -4.10773E+00 -3.78777E-01
 -4.20463E+00 -3.32443E+00 -2.48214E-01 -5.99936E+00  3.39520E+00 -3.92282E+00  4.71972E+00 -1.93714E+00
  6.11432E+00  1.78359E+00  2.78127E+00  5.91383E+00 -1.29379E+00  5.42967E+00 -3.94213E+00  4.43300E+00
 -7.00602E+00  7.31217E-01 -5.07230E+00 -4.43253E+00 -1.44719E+00 -5.66459E+00  1.88799E+00 -6.28647E+00
  6.48559E+00 -3.49305E+00  6.37595E+00  1.90634E+00  4.02242E+00  4.46902E+00  8.91035E-01  6.89482E+00
 -4.63863E+00  5.69289E+00 -6.28239E+00  9.66624E-01 -5.69151E+00 -2.15880E+00 -3.61621E+00 -6.07235E+00
  1.97714E+00 -6.72197E+00  4.84007E+00 -3.39768E+00  6.02646E+00 -6.08645E-01  5.55784E+00  4.08970E+00
  7.58050E-01  6.36408E+00 -2.51040E+00  4.77687E+00 -5.03325E+00  3.07561E+00 -6.27297E+00 -1.55202E+00
 -2.85776E+00 -4.83782E+00 -1.52721E-02 -4.85871E+00  3.11507E+00 -4.63973E+00  5.72554E+00 -8.25689E-01
  3.87217E+00  2.68790E+00  2.06017E+00  3.80928E+00 -9.04674E-01  5.03393E+00 -4.25838E+00  2.46029E+00
 -3.72937E+00 -5.76144E-01 -3.17884E+00 -2.10857E+00 -9.65073E-01 -4.37558E+00  2.43957E+00 -3.07349E+00
  2.71412E+00 -9.45292E-01  3.27300E+00  3.58363E-01  2.06503E+00  3.08123E+00 -8.50091E-01  2.74293E+00
 -1.32934E+00  1.59890E+00 -2.57691E+00  9.30070E-01 -2.28220E+00 -1.68990E+00 -1.07899E-01 -1.82736E+00
  9.97080E-02 -1.43366E+00  1.53201E+00 -1.49105E+00  1.81057E+00  6.66356E-01  3.18323E-01  8.05058E-01
  6.06879E-01  7.59375E-01 -6.07227E-01  1.35649E+00 -1.03811E+00 -2.55722E-01  5.39188E-02 -9.27830E-02
 -6.80812E-01  2.22147E-05  1.32666E-01 -7.98165E-01  3.81889E-01  4.32878E-01 -6.64619E-01 -8.98421E-02
  2.68521E-01 -4.73422E-01 -2.05210E-01  1.93966E-01 -1.35303E-01 -9.53816E-01  1.14119E+00 -2.31643E-01
  3.19554E-01  4.67614E-01  6.88845E-01  1.24733E-01  3.79957E-01  1.47705E+00 -1.22294E+00  8.32185E-01
 -7.46738E-01 -1.24703E-02 -1.29787E+00  1.13750E-02 -9.85229E-01 -1.70352E+00  8.42541E-01 -1.39807E+00
  7.78841E-01 -6.80151E-01  1.72337E+00 -5.67696E-01  1.68399E+00  1.48295E+00 -1.26876E-01  1.65511E+00
 -3.59076E-01  1.31752E+00 -1.75074E+00  1.34280E+00 -2.18805E+00 -8.52397E-01 -6.71960E-01 -1.46584E+00
 -3.90498E-01 -1.64362E+00  1.32881E+00 -2.06110E+00  2.29644E+00  2.41345E-03  1.28234E+00  8.65706E-01
  1.23225E+00  1.52833E+00 -5.71530E-01  2.48018E+00 -1.95846E+00  8.07035E-01 -1.51217E+00 -3.24460E-02
 -1.90925E+00 -1.00104E+00 -2.99366E-01 -2.47301E+00  1.27608E+00 -1.34508E+00  1.30720E+00 -7.90842E-01
  2.23603E+00  2.23105E-01  1.04224E+00  2.05889E+00 -4.52357E-01  1.48542E+00 -7.53995E-01  1.38499E+00
 -2.15243E+00  5.81482E-01 -1.47814E+00 -1.37966E+00 -2.88468E-01 -1.23499E+00  3.35947E-02 -1.62390E+00
  1.72711E+00 -1.20720E+00  1.54065E+00  6.37292E-01  7.75649E-01  7.13589E-01  6.49825E-01  1.50169E+00
 -1.11687E+00  1.52982E+00 -1.27984E+00 -2.08353E-02 -9.37856E-01 -9.85752E-02 -1.13664E+00 -1.11519E+00
  5.02906E-01 -1.53178E+00  8.26755E-01 -3.50030E-01  8.07331E-01 -4.40323E-01  1.35311E+00  6.15592E-01
 -3.07383E-02  1.28760E+00 -3.37988E-01  4.48685E-01 -4.90105E-01  7.91325E-01 -1.31641E+00 -1.50984E-01
 -2.27044E-01 -9.22047E-01 -5.79264E-02 -3.29495E-01  1.17095E-01 -9.22024E-01  1.10901E+00 -1.77819E-01
  2.75740E-01  5.60505E-01  2.92777E-01  9.21339E-02  2.01784E-01  8.69920E-01 -8.36930E-01  3.36424E-01
 -1.77152E-01 -2.90365E-01 -3.63856E-01  1.60863E-01 -4.05762E-01 -7.12021E-01  5.90796E-01 -3.49078E-01
  1.43887E-02  1.44800E-01  3.15801E-01 -3.56832E-01  4.87597E-01  5.29209E-01 -4.22013E-01  2.73375E-01
  1.40754E-01 -1.08996E-01 -2.11599E-01  4.66456E-01 -4.78647E-01 -3.79231E-01  3.39238E-01 -1.70781E-01
 -2.47255E-01  1.41212E-01  1.05644E-01 -4.98435E-01  4.24929E-01  2.85884E-01 -3.20925E-01  8.48740E-02
  2.97219E-01 -1.96637E-01 -2.86482E-02  4.82168E-01 -3.65759E-01 -2.43895E-01  3.34634E-01 -3.32222E-02
 -3.05394E-01  2.44372E-01 -1.36773E-02 -4.48864E-01  3.22277E-01  2.33006E-01 -3.53673E-01  1.20688E-02
  2.93758E-01 -2.72948E-01  3.16100E-02  4.18733E-01 -2.97468E-01 -2.32696E-01  3.65070E-01 -7.70552E-03
 -2.79063E-01  2.85857E-01 -3.94021E-02 -3.97831E-01  2.83854E-01  2.31298E-01 -3.68532E-01  7.70130E-03
  2.67652E-01 -2.92194E-01  4.62374E-02  3.82410E-01 -2.72769E-01 -2.27160E-01  3.69822E-01 -6.78729E-03
 -2.57554E-01  2.98611E-01 -5.35532E-02 -3.66498E-01  2.60479E-01  2.24374E-01 -3.73706E-01  6.60074E-03
  2.44172E-01 -3.05791E-01  5.77738E-02  3.47509E-01 -2.48902E-01 -2.26761E-01  3.80263E-01 -1.14146E-02
 -2.25330E-01  3.10022E-01 -5.51271E-02 -3.27662E-01  2.42554E-01  2.34323E-01 -3.85536E-01  2.36320E-02
  2.03192E-01 -3.07061E-01  4.51349E-02  3.11770E-01 -2.44503E-01 -2.43187E-01  3.84782E-01 -4.17127E-02
 -1.82610E-01  2.95550E-01 -3.10279E-02 -3.03739E-01  2.54316E-01  2.48349E-01 -3.75530E-01  6.13028E-02
